  10.0000        20
  10.0500        12
  10.1000        16
  10.1500        18
  10.2000        18
  10.2500        26
  10.3000        24
  10.3500        10
  10.4000         9
  10.4500        18
  10.5000        23
  10.5500        17
  10.6000        23
  10.6500        23
  10.7000        14
  10.7500        19
  10.8000        16
  10.8500        21
  10.9000        16
  10.9500        28
  11.0000        19
  11.0500        25
  11.1000        15
  11.1500        18
  11.2000        17
  11.2500        13
  11.3000        16
  11.3500        20
  11.4000        19
  11.4500        14
  11.5000        12
  11.5500        14
  11.6000        21
  11.6500        21
  11.7000         8
  11.7500        18
  11.8000        12
  11.8500        10
  11.9000        13
  11.9500        16
  12.0000        11
  12.0500        18
  12.1000        18
  12.1500        15
  12.2000        10
  12.2500        23
  12.3000        17
  12.3500        17
  12.4000        22
  12.4500        18
  12.5000        20
  12.5500        18
  12.6000        17
  12.6500        21
  12.7000         9
  12.7500        26
  12.8000        18
  12.8500        17
  12.9000        20
  12.9500        21
  13.0000        17
  13.0500        20
  13.1000        17
  13.1500        12
  13.2000        10
  13.2500        17
  13.3000         7
  13.3500        15
  13.4000        14
  13.4500        19
  13.5000        20
  13.5500        19
  13.6000        18
  13.6500        15
  13.7000        14
  13.7500        14
  13.8000        14
  13.8500        11
  13.9000        16
  13.9500        12
  14.0000        17
  14.0500        16
  14.1000        15
  14.1500        11
  14.2000        16
  14.2500        12
  14.3000        11
  14.3500        12
  14.4000        17
  14.4500         9
  14.5000        17
  14.5500         7
  14.6000        12
  14.6500        14
  14.7000        12
  14.7500         9
  14.8000        17
  14.8500        20
  14.9000        10
  14.9500         9
  15.0000        10
  15.0500        10
  15.1000        17
  15.1500        16
  15.2000        16
  15.2500        13
  15.3000        11
  15.3500        15
  15.4000        22
  15.4500        15
  15.5000        22
  15.5500        13
  15.6000        15
  15.6500        14
  15.7000        19
  15.7500        17
  15.8000        13
  15.8500        12
  15.9000        18
  15.9500        10
  16.0000        11
  16.0500        10
  16.1000        12
  16.1500        19
  16.2000        11
  16.2500        15
  16.3000        19
  16.3500        21
  16.4000         8
  16.4500        13
  16.5000        19
  16.5500         8
  16.6000         9
  16.6500        17
  16.7000        11
  16.7500        17
  16.8000        17
  16.8500         9
  16.9000        13
  16.9500        17
  17.0000        10
  17.0500        12
  17.1000        13
  17.1500        18
  17.2000        13
  17.2500        16
  17.3000        12
  17.3500         6
  17.4000         6
  17.4500        12
  17.5000        19
  17.5500        13
  17.6000        14
  17.6500        15
  17.7000        14
  17.7500        22
  17.8000        10
  17.8500        10
  17.9000        13
  17.9500        26
  18.0000        11
  18.0500        13
  18.1000        14
  18.1500         9
  18.2000        14
  18.2500        21
  18.3000        17
  18.3500        12
  18.4000        13
  18.4500        21
  18.5000        15
  18.5500        16
  18.6000        14
  18.6500        17
  18.7000        13
  18.7500        18
  18.8000        15
  18.8500        17
  18.9000        18
  18.9500        16
  19.0000        15
  19.0500        21
  19.1000        15
  19.1500        16
  19.2000        13
  19.2500        10
  19.3000        10
  19.3500         9
  19.4000        10
  19.4500        11
  19.5000        14
  19.5500        14
  19.6000         8
  19.6500        17
  19.7000        12
  19.7500         8
  19.8000        15
  19.8500        16
  19.9000        11
  19.9500        14
  20.0000        10
  20.0500        17
  20.1000        14
  20.1500        10
  20.2000        10
  20.2500        15
  20.3000        16
  20.3500         7
  20.4000        17
  20.4500         8
  20.5000         7
  20.5500        13
  20.6000        16
  20.6500        13
  20.7000        11
  20.7500        13
  20.8000        10
  20.8500         7
  20.9000        10
  20.9500        14
  21.0000         8
  21.0500         9
  21.1000        17
  21.1500        19
  21.2000        13
  21.2500         7
  21.3000        14
  21.3500        14
  21.4000        11
  21.4500        13
  21.5000        12
  21.5500         7
  21.6000        10
  21.6500         7
  21.7000        18
  21.7500        12
  21.8000        13
  21.8500        12
  21.9000        14
  21.9500        15
  22.0000        13
  22.0500        18
  22.1000        13
  22.1500        15
  22.2000        21
  22.2500        14
  22.3000        14
  22.3500        11
  22.4000        11
  22.4500        12
  22.5000         8
  22.5500        10
  22.6000        10
  22.6500        20
  22.7000        14
  22.7500        16
  22.8000        15
  22.8500        22
  22.9000        15
  22.9500        10
  23.0000        15
  23.0500        12
  23.1000        18
  23.1500        14
  23.2000        16
  23.2500        21
  23.3000         8
  23.3500        18
  23.4000        11
  23.4500        13
  23.5000        13
  23.5500        18
  23.6000        13
  23.6500        10
  23.7000        17
  23.7500        13
  23.8000        13
  23.8500        21
  23.9000        13
  23.9500        21
  24.0000        16
  24.0500        17
  24.1000         8
  24.1500        11
  24.2000        16
  24.2500        16
  24.3000        18
  24.3500        12
  24.4000         5
  24.4500        13
  24.5000        13
  24.5500        17
  24.6000        11
  24.6500         9
  24.7000        14
  24.7500         8
  24.8000        12
  24.8500        22
  24.9000         9
  24.9500        20
  25.0000        15
  25.0500        17
  25.1000        10
  25.1500        16
  25.2000        15
  25.2500        12
  25.3000        15
  25.3500         6
  25.4000        17
  25.4500        15
  25.5000        16
  25.5500        14
  25.6000        13
  25.6500        10
  25.7000        16
  25.7500        21
  25.8000         8
  25.8500        11
  25.9000        16
  25.9500        16
  26.0000        18
  26.0500        10
  26.1000        16
  26.1500        15
  26.2000        18
  26.2500        18
  26.3000        14
  26.3500        15
  26.4000        21
  26.4500        17
  26.5000        11
  26.5500        15
  26.6000        20
  26.6500        14
  26.7000        10
  26.7500        21
  26.8000        20
  26.8500        11
  26.9000        11
  26.9500        17
  27.0000        21
  27.0500        17
  27.1000        14
  27.1500        20
  27.2000        16
  27.2500        19
  27.3000         9
  27.3500        16
  27.4000        19
  27.4500        12
  27.5000        12
  27.5500        18
  27.6000        10
  27.6500        21
  27.7000        18
  27.7500         8
  27.8000        14
  27.8500        14
  27.9000        10
  27.9500        15
  28.0000        24
  28.0500        16
  28.1000        11
  28.1500        18
  28.2000        24
  28.2500        16
  28.3000        14
  28.3500        13
  28.4000        11
  28.4500        21
  28.5000        23
  28.5500        20
  28.6000        14
  28.6500        18
  28.7000        11
  28.7500        19
  28.8000        21
  28.8500        19
  28.9000        15
  28.9500        20
  29.0000        25
  29.0500        23
  29.1000        16
  29.1500        10
  29.2000        14
  29.2500         6
  29.3000        16
  29.3500        16
  29.4000        21
  29.4500        14
  29.5000        14
  29.5500        20
  29.6000        14
  29.6500        14
  29.7000        13
  29.7500        16
  29.8000        25
  29.8500        23
  29.9000        16
  29.9500        23
  30.0000        14
  30.0500        26
  30.1000        17
  30.1500        25
  30.2000        21
  30.2500        25
  30.3000        27
  30.3500        27
  30.4000        38
  30.4500        65
  30.5000       114
  30.5500       185
  30.6000       255
  30.6500       255
  30.7000       248
  30.7500       178
  30.8000       116
  30.8500        63
  30.9000        39
  30.9500        48
  31.0000        54
  31.0500        73
  31.1000       138
  31.1500       267
  31.2000       585
  31.2500       907
  31.3000      1059
  31.3500      1063
  31.4000       657
  31.4500       465
  31.5000       211
  31.5500        84
  31.6000        55
  31.6500        38
  31.7000        36
  31.7500        54
  31.8000        71
  31.8500       101
  31.9000       247
  31.9500       494
  32.0000       610
  32.0500       644
  32.1000       496
  32.1500       236
  32.2000       111
  32.2500        68
  32.3000        28
  32.3500        26
  32.4000        22
  32.4500        17
  32.5000        22
  32.5500        18
  32.6000        21
  32.6500        20
  32.7000        24
  32.7500        24
  32.8000        20
  32.8500        20
  32.9000        18
  32.9500        15
  33.0000        25
  33.0500        22
  33.1000        20
  33.1500        29
  33.2000        30
  33.2500        18
  33.3000        19
  33.3500        17
  33.4000        16
  33.4500        21
  33.5000        22
  33.5500        18
  33.6000        27
  33.6500        33
  33.7000        22
  33.7500        18
  33.8000        24
  33.8500        20
  33.9000        12
  33.9500        14
  34.0000        19
  34.0500        18
  34.1000        23
  34.1500        11
  34.2000        11
  34.2500        10
  34.3000         8
  34.3500        16
  34.4000        18
  34.4500        14
  34.5000        20
  34.5500        19
  34.6000        14
  34.6500        28
  34.7000        15
  34.7500        14
  34.8000        19
  34.8500        14
  34.9000        20
  34.9500        18
  35.0000        18
  35.0500        10
  35.1000        25
  35.1500        19
  35.2000        16
  35.2500        18
  35.3000        16
  35.3500        18
  35.4000        17
  35.4500        24
  35.5000        18
  35.5500        20
  35.6000        30
  35.6500        25
  35.7000        24
  35.7500        26
  35.8000        20
  35.8500        29
  35.9000        27
  35.9500        30
  36.0000        37
  36.0500        55
  36.1000        82
  36.1500       160
  36.2000       319
  36.2500       424
  36.3000       431
  36.3500       466
  36.4000       311
  36.4500       203
  36.5000        98
  36.5500        54
  36.6000        43
  36.6500        28
  36.7000        26
  36.7500        22
  36.8000        13
  36.8500        21
  36.9000        10
  36.9500        15
  37.0000        23
  37.0500        16
  37.1000        16
  37.1500         9
  37.2000        20
  37.2500        19
  37.3000        10
  37.3500        15
  37.4000        26
  37.4500        19
  37.5000        19
  37.5500        12
  37.6000        17
  37.6500        23
  37.7000        13
  37.7500        12
  37.8000        18
  37.8500         8
  37.9000        11
  37.9500         6
  38.0000        18
  38.0500        11
  38.1000        16
  38.1500        15
  38.2000        13
  38.2500         9
  38.3000        11
  38.3500        19
  38.4000        15
  38.4500        18
  38.5000        22
  38.5500        17
  38.6000        18
  38.6500        19
  38.7000        14
  38.7500         9
  38.8000        15
  38.8500        14
  38.9000        14
  38.9500        13
  39.0000        27
  39.0500        11
  39.1000        12
  39.1500        16
  39.2000        16
  39.2500        14
  39.3000        14
  39.3500        17
  39.4000        12
  39.4500        13
  39.5000        18
  39.5500        16
  39.6000        17
  39.6500        18
  39.7000        13
  39.7500        11
  39.8000        20
  39.8500        18
  39.9000        11
  39.9500        15
  40.0000        11
  40.0500         9
  40.1000         8
  40.1500        15
  40.2000        17
  40.2500        11
  40.3000        11
  40.3500        19
  40.4000         4
  40.4500        12
  40.5000        11
  40.5500        23
  40.6000        18
  40.6500         6
  40.7000         8
  40.7500        15
  40.8000        16
  40.8500        21
  40.9000        10
  40.9500        16
  41.0000         9
  41.0500        17
  41.1000        15
  41.1500        18
  41.2000        14
  41.2500        17
  41.3000        18
  41.3500        12
  41.4000        16
  41.4500        11
  41.5000        17
  41.5500        11
  41.6000        17
  41.6500         9
  41.7000        12
  41.7500        16
  41.8000        11
  41.8500        14
  41.9000        16
  41.9500        15
  42.0000        17
  42.0500         7
  42.1000        16
  42.1500        11
  42.2000        12
  42.2500         8
  42.3000        14
  42.3500         9
  42.4000        14
  42.4500        12
  42.5000        19
  42.5500         9
  42.6000         8
  42.6500        21
  42.7000        13
  42.7500        14
  42.8000         7
  42.8500        15
  42.9000        14
  42.9500        17
  43.0000        22
  43.0500        14
  43.1000        19
  43.1500        11
  43.2000        16
  43.2500        16
  43.3000        22
  43.3500        18
  43.4000        13
  43.4500        22
  43.5000         7
  43.5500        20
  43.6000        16
  43.6500        26
  43.7000        33
  43.7500        49
  43.8000       109
  43.8500       106
  43.9000       144
  43.9500       114
  44.0000        73
  44.0500        68
  44.1000        27
  44.1500        33
  44.2000        18
  44.2500        27
  44.3000        18
  44.3500        12
  44.4000        12
  44.4500        10
  44.5000        18
  44.5500        17
  44.6000        31
  44.6500        25
  44.7000        38
  44.7500        64
  44.8000       210
  44.8500       302
  44.9000       306
  44.9500       318
  45.0000       250
  45.0500       155
  45.1000        91
  45.1500        48
  45.2000        26
  45.2500        19
  45.3000        20
  45.3500        12
  45.4000        11
  45.4500        18
  45.5000        16
  45.5500        18
  45.6000        18
  45.6500        13
  45.7000        18
  45.7500        10
  45.8000        12
  45.8500        15
  45.9000         8
  45.9500        11
  46.0000        15
  46.0500        12
  46.1000        13
  46.1500        13
  46.2000        15
  46.2500        10
  46.3000        16
  46.3500        11
  46.4000        14
  46.4500        17
  46.5000        13
  46.5500         8
  46.6000        17
  46.6500        12
  46.7000        10
  46.7500         4
  46.8000         9
  46.8500        19
  46.9000        11
  46.9500        13
  47.0000        13
  47.0500        13
  47.1000        18
  47.1500        21
  47.2000         6
  47.2500         9
  47.3000        12
  47.3500        15
  47.4000         8
  47.4500        21
  47.5000        12
  47.5500         9
  47.6000        11
  47.6500        15
  47.7000         7
  47.7500        19
  47.8000        13
  47.8500        13
  47.9000        13
  47.9500         9
  48.0000        11
  48.0500        13
  48.1000         6
  48.1500         8
  48.2000         7
  48.2500        20
  48.3000        16
  48.3500        12
  48.4000        21
  48.4500        14
  48.5000        15
  48.5500        10
  48.6000        21
  48.6500        14
  48.7000         9
  48.7500        12
  48.8000        13
  48.8500         8
  48.9000        14
  48.9500        10
  49.0000        15
  49.0500        11
  49.1000         7
  49.1500         7
  49.2000        12
  49.2500        29
  49.3000        10
  49.3500         8
  49.4000         5
  49.4500        11
  49.5000         9
  49.5500        14
  49.6000         9
  49.6500        13
  49.7000        17
  49.7500         7
  49.8000        16
  49.8500         8
  49.9000        12
  49.9500        14
  50.0000        11
  50.0500        11
  50.1000        17
  50.1500         7
  50.2000         7
  50.2500         9
  50.3000        10
  50.3500        18
  50.4000        13
  50.4500        13
  50.5000        16
  50.5500         9
  50.6000        13
  50.6500        13
  50.7000         9
  50.7500        22
  50.8000        15
  50.8500        16
  50.9000        13
  50.9500        15
  51.0000        20
  51.0500        20
  51.1000         7
  51.1500        16
  51.2000        17
  51.2500        11
  51.3000        13
  51.3500        11
  51.4000        11
  51.4500        12
  51.5000        18
  51.5500        19
  51.6000        18
  51.6500        14
  51.7000        19
  51.7500        18
  51.8000        16
  51.8500        23
  51.9000        24
  51.9500        25
  52.0000        27
  52.0500        23
  52.1000        49
  52.1500       110
  52.2000       253
  52.2500       271
  52.3000       272
  52.3500       221
  52.4000       196
  52.4500       135
  52.5000        82
  52.5500        58
  52.6000        27
  52.6500        23
  52.7000        22
  52.7500        25
  52.8000        17
  52.8500        15
  52.9000        11
  52.9500        18
  53.0000        16
  53.0500        11
  53.1000        21
  53.1500        11
  53.2000        16
  53.2500        11
  53.3000        12
  53.3500        21
  53.4000        17
  53.4500        16
  53.5000        15
  53.5500         8
  53.6000        11
  53.6500        11
  53.7000        24
  53.7500        17
  53.8000        13
  53.8500        25
  53.9000        14
  53.9500        17
  54.0000        20
  54.0500        12
  54.1000         9
  54.1500        19
  54.2000        16
  54.2500        14
  54.3000        11
  54.3500         9
  54.4000        21
  54.4500        13
  54.5000        16
  54.5500        12
  54.6000        14
  54.6500        16
  54.7000        13
  54.7500        13
  54.8000        17
  54.8500        23
  54.9000        14
  54.9500        20
  55.0000        11
  55.0500        16
  55.1000        18
  55.1500        13
  55.2000        25
  55.2500        33
  55.3000        49
  55.3500        62
  55.4000        63
  55.4500        62
  55.5000        57
  55.5500        54
  55.6000        30
  55.6500        13
  55.7000        15
  55.7500        12
  55.8000        21
  55.8500        13
  55.9000        19
  55.9500         9
  56.0000        19
  56.0500        12
  56.1000         8
  56.1500        18
  56.2000        22
  56.2500        19
  56.3000        11
  56.3500        20
  56.4000        22
  56.4500        18
  56.5000        13
  56.5500        21
  56.6000        12
  56.6500        14
  56.7000        25
  56.7500        15
  56.8000        17
  56.8500        12
  56.9000        15
  56.9500        18
  57.0000        17
  57.0500        15
  57.1000        16
  57.1500        12
  57.2000        24
  57.2500        13
  57.3000        10
  57.3500        15
  57.4000        23
  57.4500        15
  57.5000        18
  57.5500        17
  57.6000         9
  57.6500        19
  57.7000        10
  57.7500        12
  57.8000        21
  57.8500        18
  57.9000        14
  57.9500        22
  58.0000        10
  58.0500        15
  58.1000        19
  58.1500        15
  58.2000        12
  58.2500        12
  58.3000        16
  58.3500        12
  58.4000        25
  58.4500        19
  58.5000        10
  58.5500        12
  58.6000        13
  58.6500        16
  58.7000        16
  58.7500        16
  58.8000        12
  58.8500        15
  58.9000        16
  58.9500        16
  59.0000        10
  59.0500        14
  59.1000         9
  59.1500        12
  59.2000        19
  59.2500        14
  59.3000        14
  59.3500        10
  59.4000        11
  59.4500        11
  59.5000        16
  59.5500        14
  59.6000        16
  59.6500        13
  59.7000        12
  59.7500        11
  59.8000        12
  59.8500        13
  59.9000        15
  59.9500        16
  60.0000        21
  60.0500        19
  60.1000        22
  60.1500        26
  60.2000        19
  60.2500        18
  60.3000        16
  60.3500        10
  60.4000        15
  60.4500        17
  60.5000        19
  60.5500        13
  60.6000        15
  60.6500        17
  60.7000        21
  60.7500        20
  60.8000        21
  60.8500        15
  60.9000         9
  60.9500        18
  61.0000        13
  61.0500         9
  61.1000        17
  61.1500        17
  61.2000        16
  61.2500        12
  61.3000        17
  61.3500        20
  61.4000        20
  61.4500        16
  61.5000        16
  61.5500        18
  61.6000        16
  61.6500        16
  61.7000        21
  61.7500        18
  61.8000        20
  61.8500        40
  61.9000        26
  61.9500        28
  62.0000        36
  62.0500        68
  62.1000       118
  62.1500       181
  62.2000       212
  62.2500       209
  62.3000       172
  62.3500       152
  62.4000       155
  62.4500       152
  62.5000       139
  62.5500       119
  62.6000        93
  62.6500        86
  62.7000        92
  62.7500        53
  62.8000        41
  62.8500        21
  62.9000        16
  62.9500        24
  63.0000        17
  63.0500        13
  63.1000        20
  63.1500        19
  63.2000        19
  63.2500        19
  63.3000        19
  63.3500        24
  63.4000        25
  63.4500        33
  63.5000        19
  63.5500        12
  63.6000        12
  63.6500        19
  63.7000        34
  63.7500        37
  63.8000        40
  63.8500        37
  63.9000        36
  63.9500        34
  64.0000        23
  64.0500        25
  64.1000        19
  64.1500         9
  64.2000        24
  64.2500        14
  64.3000        13
  64.3500        17
  64.4000        23
  64.4500        29
  64.5000        42
  64.5500        67
  64.6000        67
  64.6500        58
  64.7000        56
  64.7500        44
  64.8000        56
  64.8500        27
  64.9000        31
  64.9500        31
  65.0000        16
  65.0500        22
  65.1000        21
  65.1500        22
  65.2000        56
  65.2500        93
  65.3000        72
  65.3500        53
  65.4000        57
  65.4500        44
  65.5000        46
  65.5500        33
  65.6000        25
  65.6500        24
  65.7000        20
  65.7500        15
  65.8000        24
  65.8500        25
  65.9000        15
  65.9500        12
  66.0000        20
  66.0500        20
  66.1000         8
  66.1500        15
  66.2000        22
  66.2500        15
  66.3000         9
  66.3500        21
  66.4000        18
  66.4500        21
  66.5000        18
  66.5500        16
  66.6000        18
  66.6500        11
  66.7000        24
  66.7500        17
  66.8000        16
  66.8500         9
  66.9000        17
  66.9500        14
  67.0000        10
  67.0500        10
  67.1000        13
  67.1500        11
  67.2000        16
  67.2500        17
  67.3000        13
  67.3500        15
  67.4000         9
  67.4500        14
  67.5000        11
  67.5500        15
  67.6000        15
  67.6500        13
  67.7000        18
  67.7500         9
  67.8000        15
  67.8500        19
  67.9000        12
  67.9500        11
  68.0000        13
  68.0500        11
  68.1000         9
  68.1500        16
  68.2000        13
  68.2500        19
  68.3000        12
  68.3500        11
  68.4000        13
  68.4500        17
  68.5000        17
  68.5500        11
  68.6000        14
  68.6500        11
  68.7000         9
  68.7500        16
  68.8000        15
  68.8500        21
  68.9000        14
  68.9500        10
  69.0000        17
  69.0500        15
  69.1000        11
  69.1500        13
  69.2000         8
  69.2500        13
  69.3000         7
  69.3500         9
  69.4000        15
  69.4500        10
  69.5000        13
  69.5500        19
  69.6000        19
  69.6500        14
  69.7000         7
  69.7500        10
  69.8000        14
  69.8500        13
  69.9000        18
  69.9500        13
  70.0000        17
  70.0500        20
  70.1000        15
  70.1500        23
  70.2000        18
  70.2500        20
  70.3000        13
  70.3500         7
  70.4000        10
  70.4500        13
  70.5000        20
  70.5500        18
  70.6000        18
  70.6500        13
  70.7000        16
  70.7500         9
  70.8000        10
  70.8500        20
  70.9000        10
  70.9500         9
  71.0000         9
  71.0500        12
  71.1000         9
  71.1500        12
  71.2000        15
  71.2500        11
  71.3000        18
  71.3500         8
  71.4000         9
  71.4500        22
  71.5000        20
  71.5500        12
  71.6000        16
  71.6500        14
  71.7000        15
  71.7500        13
  71.8000        12
  71.8500         8
  71.9000        17
  71.9500         9
  72.0000        19
  72.0500         9
  72.1000        12
  72.1500        14
  72.2000        14
  72.2500        22
  72.3000        34
  72.3500        52
  72.4000        44
  72.4500        51
  72.5000        45
  72.5500        43
  72.6000        44
  72.6500        39
  72.7000        26
  72.7500        16
  72.8000        22
  72.8500        11
  72.9000        10
  72.9500        17
  73.0000        21
  73.0500        30
  73.1000        50
  73.1500        53
  73.2000        65
  73.2500        43
  73.3000        33
  73.3500        26
  73.4000        30
  73.4500        24
  73.5000        24
  73.5500        18
  73.6000        13
  73.6500        17
  73.7000        12
  73.7500        12
  73.8000        15
  73.8500        12
  73.9000        14
  73.9500         8
  74.0000        13
  74.0500        18
  74.1000        16
  74.1500        13
  74.2000        17
  74.2500        13
  74.3000        19
  74.3500        16
  74.4000        16
  74.4500        12
  74.5000        18
  74.5500         6
  74.6000        14
  74.6500        18
  74.7000        16
  74.7500        14
  74.8000        11
  74.8500        14
  74.9000        12
  74.9500        12
  75.0000        17
  75.0500         8
  75.1000         9
  75.1500        12
  75.2000        13
  75.2500        14
  75.3000        17
  75.3500        12
  75.4000        15
  75.4500        12
  75.5000        14
  75.5500        10
  75.6000         9
  75.6500        14
  75.7000        14
  75.7500        15
  75.8000        12
  75.8500         8
  75.9000         7
  75.9500        10
  76.0000        10
  76.0500        14
  76.1000        12
  76.1500        10
  76.2000        20
  76.2500         7
  76.3000        12
  76.3500        15
  76.4000        12
  76.4500        13
  76.5000        12
  76.5500        16
  76.6000        14
  76.6500        17
  76.7000        12
  76.7500        13
  76.8000        17
  76.8500        14
  76.9000        19
  76.9500        24
  77.0000        33
  77.0500        28
  77.1000        33
  77.1500        19
  77.2000        39
  77.2500        23
  77.3000        22
  77.3500        16
  77.4000        15
  77.4500        14
  77.5000        14
  77.5500        20
  77.6000        16
  77.6500        10
  77.7000        17
  77.7500        15
  77.8000        15
  77.8500        13
  77.9000         7
  77.9500        13
  78.0000        18
  78.0500        21
  78.1000        21
  78.1500        13
  78.2000        10
  78.2500        11
  78.3000         9
  78.3500         9
  78.4000        12
  78.4500        20
  78.5000        10
  78.5500        16
  78.6000         8
  78.6500        21
  78.7000        13
  78.7500        14
  78.8000        12
  78.8500        15
  78.9000        12
  78.9500        18
  79.0000        15
  79.0500        19
  79.1000        14
  79.1500        12
  79.2000        17
  79.2500        10
  79.3000        21
  79.3500        17
  79.4000        39
  79.4500        57
  79.5000        98
  79.5500        65
  79.6000        44
  79.6500        42
  79.7000        46
  79.7500        54
  79.8000        29
  79.8500        27
  79.9000        27
  79.9500        13
  80.0000        11
  80.0500        15
  80.1000        12
  80.1500        13
  80.2000        12
  80.2500        14
  80.3000         8
  80.3500        17
  80.4000        18
  80.4500        19
  80.5000        11
  80.5500        16
  80.6000        13
  80.6500        18
  80.7000        14
  80.7500        11
  80.8000        10
  80.8500        20
  80.9000        12
  80.9500         9
  81.0000        16
  81.0500        14
  81.1000         7
  81.1500        14
  81.2000        10
  81.2500        10
  81.3000        16
  81.3500        12
  81.4000        10
  81.4500        16
  81.5000         7
  81.5500        12
  81.6000         7
  81.6500        18
  81.7000         6
  81.7500        12
  81.8000        12
  81.8500        11
  81.9000        13
  81.9500        23
  82.0000        17
  82.0500        12
  82.1000         9
  82.1500        13
  82.2000        10
  82.2500        22
  82.3000        10
  82.3500        15
  82.4000        11
  82.4500         9
  82.5000         8
  82.5500        12
  82.6000         8
  82.6500        10
  82.7000        12
  82.7500        13
  82.8000        14
  82.8500        12
  82.9000        13
  82.9500        13
  83.0000        12
  83.0500        16
  83.1000        13
  83.1500        15
  83.2000        12
  83.2500         6
  83.3000        12
  83.3500        15
  83.4000        14
  83.4500        10
  83.5000         8
  83.5500        15
  83.6000         9
  83.6500        16
  83.7000        15
  83.7500         7
  83.8000        14
  83.8500        14
  83.9000        10
  83.9500        14
  84.0000        13
  84.0500        13
  84.1000        12
  84.1500        21
  84.2000        19
  84.2500        13
  84.3000        19
  84.3500         9
  84.4000        14
  84.4500        14
  84.5000        13
  84.5500        13
  84.6000        17
  84.6500        10
  84.7000        22
  84.7500        21
  84.8000        13
  84.8500        14
  84.9000        14
  84.9500        13
  85.0000        15
  85.0500        14
  85.1000        12
  85.1500        11
  85.2000         6
  85.2500        18
  85.3000        27
  85.3500        28
  85.4000        33
  85.4500        65
  85.5000        57
  85.5500        60
  85.6000        44
  85.6500        41
  85.7000        33
  85.7500        29
  85.8000        20
  85.8500        29
  85.9000        25
  85.9500        22
  86.0000        17
  86.0500        16
  86.1000        17
  86.1500         9
  86.2000        14
  86.2500        25
  86.3000        17
  86.3500        16
  86.4000        16
  86.4500        16
  86.5000        11
  86.5500        13
  86.6000        13
  86.6500        11
  86.7000        18
  86.7500        15
  86.8000        14
  86.8500        15
  86.9000        14
  86.9500        15
  87.0000        14
  87.0500        13
  87.1000        12
  87.1500        16
  87.2000        13
  87.2500        18
  87.3000         8
  87.3500        10
  87.4000        13
  87.4500        11
  87.5000         9
  87.5500        14
  87.6000        15
  87.6500        12
  87.7000        10
  87.7500        14
  87.8000        19
  87.8500        17
  87.9000        19
  87.9500         8
  88.0000        21
  88.0500        17
  88.1000        26
  88.1500        37
  88.2000        43
  88.2500        53
  88.3000        45
  88.3500        43
  88.4000        43
  88.4500        37
  88.5000        27
  88.5500        38
  88.6000        31
  88.6500        34
  88.7000        18
  88.7500        14
  88.8000        20
  88.8500        18
  88.9000        21
  88.9500        11
  89.0000        15
  89.0500        10
  89.1000        15
  89.1500        16
  89.2000        12
  89.2500        22
  89.3000        23
  89.3500        45
  89.4000        41
  89.4500        55
  89.5000        33
  89.5500        21
  89.6000        28
  89.6500        32
  89.7000        24
  89.7500        31
  89.8000        19
  89.8500         9
  89.9000        23
  89.9500        11
  90.0000        13
  90.0500        11
  90.1000        10
  90.1500        22
  90.2000        12
  90.2500        14
  90.3000        14
  90.3500        15
  90.4000        12
  90.4500        18
  90.5000        24
  90.5500        15
  90.6000        14
  90.6500        14
  90.7000        14
  90.7500        18
  90.8000        15
  90.8500        13
  90.9000        19
  90.9500        13
  91.0000        10
  91.0500        10
  91.1000        21
  91.1500        16
  91.2000        11
  91.2500        12
  91.3000        10
  91.3500        13
  91.4000        15
  91.4500        20
  91.5000        16
  91.5500        12
  91.6000        12
  91.6500        12
  91.7000        18
  91.7500        15
  91.8000         4
  91.8500        13
  91.9000        14
  91.9500        10
  92.0000        13
  92.0500        14
  92.1000         5
  92.1500        10
  92.2000        15
  92.2500        14
  92.3000        13
  92.3500         5
  92.4000        14
  92.4500        14
  92.5000        12
  92.5500        13
  92.6000        12
  92.6500        15
  92.7000        10
  92.7500        12
  92.8000        25
  92.8500         9
  92.9000         7
  92.9500        16
  93.0000        13
  93.0500        18
  93.1000        20
  93.1500        22
  93.2000        10
  93.2500        18
  93.3000        13
  93.3500        13
  93.4000        12
  93.4500        14
  93.5000        17
  93.5500        13
  93.6000        14
  93.6500        10
  93.7000        11
  93.7500        16
  93.8000        12
  93.8500        16
  93.9000        15
  93.9500        14
  94.0000        18
  94.0500        18
  94.1000         9
  94.1500        16
  94.2000        10
  94.2500        16
  94.3000        10
  94.3500         9
  94.4000        11
  94.4500        10
  94.5000        12
  94.5500        16
  94.6000        11
  94.6500        16
  94.7000        23
  94.7500        11
  94.8000        10
  94.8500        15
  94.9000        17
  94.9500        19
  95.0000        18
  95.0500        17
  95.1000        20
  95.1500        24
  95.2000        20
  95.2500        19
  95.3000        12
  95.3500        13
  95.4000        17
  95.4500        20
  95.5000        18
  95.5500        30
  95.6000        33
  95.6500        34
  95.7000        19
  95.7500        23
  95.8000        16
  95.8500        22
  95.9000        26
  95.9500        29
  96.0000        21
  96.0500        14
  96.1000        18
  96.1500        17
  96.2000        12
  96.2500        13
  96.3000         9
  96.3500        13
  96.4000        15
  96.4500        13
  96.5000        22
  96.5500        13
  96.6000        12
  96.6500        15
  96.7000        26
  96.7500        15
  96.8000        13
  96.8500        12
  96.9000        17
  96.9500        12
  97.0000        19
  97.0500        14
  97.1000        20
  97.1500        12
  97.2000        17
  97.2500        11
  97.3000        27
  97.3500        29
  97.4000        26
  97.4500        18
  97.5000        22
  97.5500        21
  97.6000        14
  97.6500        18
  97.7000        18
  97.7500        22
  97.8000        15
  97.8500         7
  97.9000        17
  97.9500        17
  98.0000        23
  98.0500        14
  98.1000         8
  98.1500         9
  98.2000        12
  98.2500        12
  98.3000        18
  98.3500        13
  98.4000        11
  98.4500        16
  98.5000         6
  98.5500        18
  98.6000        15
  98.6500        12
  98.7000        18
  98.7500        14
  98.8000        14
  98.8500        18
  98.9000        15
  98.9500        15
  99.0000        12
  99.0500        13
  99.1000        18
  99.1500        13
  99.2000        18
  99.2500        16
  99.3000        28
  99.3500        28
  99.4000        44
  99.4500        58
  99.5000        35
  99.5500        34
  99.6000        23
  99.6500        24
  99.7000        28
  99.7500        26
  99.8000        23
  99.8500        27
  99.9000        21
  99.9500        21
 100.0000        20
 100.0500        22
 100.1000        20
 100.1500        14
 100.2000        23
 100.2500        17
 100.3000        13
 100.3500        13
 100.4000        12
 100.4500        17
 100.5000        14
 100.5500        12
 100.6000        15
 100.6500        20
 100.7000        22
 100.7500        18
 100.8000        15
 100.8500        11
 100.9000        13
 100.9500        22
 101.0000        16
 101.0500        23
 101.1000        11
 101.1500         9
 101.2000        14
 101.2500        18
 101.3000        15
 101.3500         7
 101.4000        16
 101.4500        15
 101.5000        16
 101.5500        10
 101.6000        16
 101.6500        12
 101.7000        17
 101.7500        13
 101.8000        17
 101.8500         9
 101.9000        16
 101.9500        11
 102.0000        15
 102.0500        16
 102.1000        15
 102.1500        13
 102.2000        12
 102.2500         9
 102.3000        10
 102.3500        11
 102.4000        11
 102.4500        11
 102.5000        21
 102.5500        10
 102.6000        14
 102.6500         8
 102.7000        22
 102.7500        13
 102.8000        16
 102.8500        17
 102.9000        10
 102.9500        14
 103.0000        12
 103.0500        13
 103.1000        15
 103.1500        30
 103.2000        32
 103.2500        29
 103.3000        31
 103.3500        41
 103.4000        17
 103.4500        17
 103.5000        18
 103.5500        16
 103.6000        25
 103.6500        14
 103.7000        30
 103.7500        11
 103.8000        13
 103.8500        16
 103.9000        14
 103.9500         7
 104.0000        20
 104.0500        23
 104.1000         4
 104.1500        17
 104.2000         9
 104.2500        12
 104.3000        16
 104.3500        19
 104.4000        19
 104.4500        14
 104.5000        12
 104.5500        22
 104.6000         9
 104.6500        22
 104.7000        14
 104.7500        22
 104.8000        17
 104.8500        19
 104.9000        20
 104.9500        20
 105.0000        14
 105.0500        14
 105.1000        15
 105.1500        22
 105.2000        12
 105.2500        13
 105.3000        12
 105.3500        20
 105.4000        15
 105.4500        10
 105.5000         9
 105.5500        17
 105.6000        16
 105.6500         9
 105.7000        17
 105.7500        17
 105.8000        16
 105.8500         9
 105.9000        13
 105.9500        11
 106.0000        11
 106.0500        22
 106.1000        23
 106.1500        12
 106.2000        17
 106.2500        13
 106.3000         5
 106.3500        15
 106.4000        10
 106.4500        12
 106.5000        13
 106.5500        17
 106.6000        12
 106.6500        10
 106.7000        13
 106.7500        20
 106.8000        12
 106.8500        20
 106.9000        12
 106.9500        18
 107.0000        11
 107.0500        16
 107.1000        20
 107.1500        17
 107.2000        15
 107.2500        12
 107.3000        11
 107.3500        11
 107.4000        15
 107.4500        25
 107.5000        18
 107.5500        16
 107.6000        15
 107.6500        12
 107.7000        19
 107.7500        18
 107.8000        16
 107.8500        23
 107.9000        37
 107.9500        49
 108.0000        46
 108.0500        48
 108.1000        50
 108.1500        34
 108.2000        21
 108.2500        24
 108.3000        34
 108.3500        25
 108.4000        29
 108.4500        24
 108.5000        22
 108.5500        29
 108.6000        15
 108.6500        20
 108.7000        19
 108.7500        12
 108.8000         7
 108.8500        13
 108.9000        14
 108.9500        15
 109.0000        17
 109.0500        14
 109.1000        14
 109.1500        10
 109.2000        10
 109.2500        16
 109.3000        12
 109.3500        10
 109.4000        15
 109.4500        19
 109.5000        10
 109.5500        14
 109.6000        19
 109.6500        16
 109.7000        13
 109.7500        17
 109.8000        17
 109.8500        14
 109.9000         9
 109.9500        23
 110.0000        15
