  10.0000        17
  10.0500        27
  10.1000        16
  10.1500        21
  10.2000        12
  10.2500        17
  10.3000        16
  10.3500        17
  10.4000         7
  10.4500        20
  10.5000        20
  10.5500        16
  10.6000        21
  10.6500        13
  10.7000        14
  10.7500        23
  10.8000        20
  10.8500         9
  10.9000        16
  10.9500        12
  11.0000        14
  11.0500        16
  11.1000         6
  11.1500        15
  11.2000        17
  11.2500        16
  11.3000        18
  11.3500        18
  11.4000        17
  11.4500        19
  11.5000        19
  11.5500        14
  11.6000        24
  11.6500        20
  11.7000        13
  11.7500        18
  11.8000        16
  11.8500        10
  11.9000        21
  11.9500        13
  12.0000        15
  12.0500        17
  12.1000        15
  12.1500        13
  12.2000        18
  12.2500        25
  12.3000         9
  12.3500        16
  12.4000        16
  12.4500        19
  12.5000        16
  12.5500        19
  12.6000        15
  12.6500        24
  12.7000        15
  12.7500        20
  12.8000        22
  12.8500        14
  12.9000        25
  12.9500        14
  13.0000        11
  13.0500        19
  13.1000        13
  13.1500        17
  13.2000        15
  13.2500        14
  13.3000        16
  13.3500        18
  13.4000        17
  13.4500        22
  13.5000        18
  13.5500        17
  13.6000        17
  13.6500        10
  13.7000        17
  13.7500        16
  13.8000        14
  13.8500        16
  13.9000        15
  13.9500        15
  14.0000        15
  14.0500        10
  14.1000        19
  14.1500        11
  14.2000        15
  14.2500        10
  14.3000        13
  14.3500        12
  14.4000        11
  14.4500        16
  14.5000        20
  14.5500         7
  14.6000        13
  14.6500        13
  14.7000         9
  14.7500        12
  14.8000        10
  14.8500        12
  14.9000        12
  14.9500        18
  15.0000        13
  15.0500        13
  15.1000        17
  15.1500        11
  15.2000        17
  15.2500        12
  15.3000        16
  15.3500        19
  15.4000        15
  15.4500        14
  15.5000         9
  15.5500        14
  15.6000        14
  15.6500        17
  15.7000         8
  15.7500        20
  15.8000        20
  15.8500        12
  15.9000        15
  15.9500        10
  16.0000        17
  16.0500        16
  16.1000        16
  16.1500        15
  16.2000        10
  16.2500        13
  16.3000        14
  16.3500        18
  16.4000        13
  16.4500         8
  16.5000        18
  16.5500         3
  16.6000        10
  16.6500        13
  16.7000        10
  16.7500        11
  16.8000         8
  16.8500        13
  16.9000        15
  16.9500        10
  17.0000         8
  17.0500        13
  17.1000         7
  17.1500        21
  17.2000        10
  17.2500        14
  17.3000        12
  17.3500         8
  17.4000        11
  17.4500        14
  17.5000        14
  17.5500        13
  17.6000        24
  17.6500        10
  17.7000        11
  17.7500        15
  17.8000        10
  17.8500        10
  17.9000        14
  17.9500        17
  18.0000        13
  18.0500        15
  18.1000         9
  18.1500        11
  18.2000        13
  18.2500        21
  18.3000         8
  18.3500        22
  18.4000        13
  18.4500        12
  18.5000        15
  18.5500        14
  18.6000        12
  18.6500         8
  18.7000        19
  18.7500         9
  18.8000        12
  18.8500        15
  18.9000         7
  18.9500         7
  19.0000        13
  19.0500        13
  19.1000        12
  19.1500        14
  19.2000        15
  19.2500        15
  19.3000        16
  19.3500        15
  19.4000        15
  19.4500         9
  19.5000        11
  19.5500        17
  19.6000        12
  19.6500        10
  19.7000        17
  19.7500        10
  19.8000        12
  19.8500        13
  19.9000        21
  19.9500        10
  20.0000        15
  20.0500         9
  20.1000         9
  20.1500         7
  20.2000        10
  20.2500        16
  20.3000        12
  20.3500        13
  20.4000        14
  20.4500        10
  20.5000         3
  20.5500        11
  20.6000        11
  20.6500        17
  20.7000         9
  20.7500        15
  20.8000        14
  20.8500        18
  20.9000         8
  20.9500        14
  21.0000        10
  21.0500        11
  21.1000        17
  21.1500        19
  21.2000        11
  21.2500        12
  21.3000        12
  21.3500        11
  21.4000         8
  21.4500        12
  21.5000        13
  21.5500         9
  21.6000        16
  21.6500        16
  21.7000        11
  21.7500        19
  21.8000        12
  21.8500         9
  21.9000        19
  21.9500        18
  22.0000        18
  22.0500        15
  22.1000        12
  22.1500        13
  22.2000        19
  22.2500        10
  22.3000        15
  22.3500        17
  22.4000        12
  22.4500        13
  22.5000        13
  22.5500        14
  22.6000        16
  22.6500        14
  22.7000        13
  22.7500        26
  22.8000        11
  22.8500        16
  22.9000         7
  22.9500        17
  23.0000        10
  23.0500        12
  23.1000        12
  23.1500        10
  23.2000        14
  23.2500        24
  23.3000        16
  23.3500        16
  23.4000        14
  23.4500        11
  23.5000        14
  23.5500        15
  23.6000        16
  23.6500        10
  23.7000        20
  23.7500        11
  23.8000         9
  23.8500        11
  23.9000        12
  23.9500        17
  24.0000        15
  24.0500        15
  24.1000        24
  24.1500        17
  24.2000        14
  24.2500        19
  24.3000        16
  24.3500        18
  24.4000        16
  24.4500        11
  24.5000        17
  24.5500         9
  24.6000        15
  24.6500        10
  24.7000        14
  24.7500        17
  24.8000        19
  24.8500        12
  24.9000        16
  24.9500        20
  25.0000        11
  25.0500        30
  25.1000        14
  25.1500        11
  25.2000        21
  25.2500        17
  25.3000         9
  25.3500        20
  25.4000        17
  25.4500        21
  25.5000        12
  25.5500        14
  25.6000        13
  25.6500        13
  25.7000        16
  25.7500        18
  25.8000        16
  25.8500        16
  25.9000        10
  25.9500        13
  26.0000        11
  26.0500        15
  26.1000        13
  26.1500        21
  26.2000         9
  26.2500        10
  26.3000        11
  26.3500        13
  26.4000        11
  26.4500        11
  26.5000        12
  26.5500        14
  26.6000        15
  26.6500        13
  26.7000        16
  26.7500        17
  26.8000        25
  26.8500        20
  26.9000         9
  26.9500        14
  27.0000        22
  27.0500        14
  27.1000        26
  27.1500        21
  27.2000        16
  27.2500        27
  27.3000        18
  27.3500        17
  27.4000        12
  27.4500        19
  27.5000        13
  27.5500        18
  27.6000         7
  27.6500        15
  27.7000        13
  27.7500        10
  27.8000        15
  27.8500        19
  27.9000        17
  27.9500        21
  28.0000        15
  28.0500        15
  28.1000         6
  28.1500        25
  28.2000        18
  28.2500        20
  28.3000        16
  28.3500        19
  28.4000        20
  28.4500        22
  28.5000        17
  28.5500        25
  28.6000        21
  28.6500        12
  28.7000        18
  28.7500        20
  28.8000        14
  28.8500        14
  28.9000        10
  28.9500        20
  29.0000        12
  29.0500        11
  29.1000        21
  29.1500        15
  29.2000        25
  29.2500        15
  29.3000        26
  29.3500        20
  29.4000        20
  29.4500        16
  29.5000        24
  29.5500        22
  29.6000        27
  29.6500        13
  29.7000        19
  29.7500        20
  29.8000        23
  29.8500        19
  29.9000        18
  29.9500        19
  30.0000        21
  30.0500        18
  30.1000        20
  30.1500        24
  30.2000        26
  30.2500        24
  30.3000        37
  30.3500        29
  30.4000        22
  30.4500        29
  30.5000        33
  30.5500        38
  30.6000        44
  30.6500        91
  30.7000        66
  30.7500        70
  30.8000        58
  30.8500        39
  30.9000        39
  30.9500        37
  31.0000        67
  31.0500        87
  31.1000       138
  31.1500       277
  31.2000       539
  31.2500      1008
  31.3000      1382
  31.3500      1630
  31.4000      1269
  31.4500       811
  31.5000       374
  31.5500       170
  31.6000        81
  31.6500        57
  31.7000        42
  31.7500        45
  31.8000        40
  31.8500        49
  31.9000        48
  31.9500        70
  32.0000       115
  32.0500       107
  32.1000       101
  32.1500        69
  32.2000        47
  32.2500        41
  32.3000        30
  32.3500        34
  32.4000        29
  32.4500        27
  32.5000        17
  32.5500        18
  32.6000        18
  32.6500        22
  32.7000        17
  32.7500        24
  32.8000        28
  32.8500        24
  32.9000        24
  32.9500        16
  33.0000        15
  33.0500        20
  33.1000        22
  33.1500        22
  33.2000        13
  33.2500        22
  33.3000        13
  33.3500        19
  33.4000        14
  33.4500        26
  33.5000        21
  33.5500        20
  33.6000        23
  33.6500        18
  33.7000        16
  33.7500        21
  33.8000        15
  33.8500        17
  33.9000        18
  33.9500        17
  34.0000        15
  34.0500        13
  34.1000        11
  34.1500        15
  34.2000        11
  34.2500        16
  34.3000        19
  34.3500        22
  34.4000        17
  34.4500        16
  34.5000        12
  34.5500        21
  34.6000        20
  34.6500        23
  34.7000        16
  34.7500        11
  34.8000        20
  34.8500        19
  34.9000        17
  34.9500        18
  35.0000        20
  35.0500        23
  35.1000        13
  35.1500        16
  35.2000        20
  35.2500        27
  35.3000        22
  35.3500        15
  35.4000        24
  35.4500        26
  35.5000        22
  35.5500        16
  35.6000        14
  35.6500        27
  35.7000        32
  35.7500        23
  35.8000        23
  35.8500        32
  35.9000        33
  35.9500        30
  36.0000        32
  36.0500        66
  36.1000        98
  36.1500       195
  36.2000       381
  36.2500       631
  36.3000       768
  36.3500       801
  36.4000       593
  36.4500       405
  36.5000       199
  36.5500       121
  36.6000        69
  36.6500        38
  36.7000        32
  36.7500        30
  36.8000        25
  36.8500        25
  36.9000        22
  36.9500        23
  37.0000        22
  37.0500        21
  37.1000        20
  37.1500        18
  37.2000        11
  37.2500         9
  37.3000        15
  37.3500        20
  37.4000        14
  37.4500        19
  37.5000        17
  37.5500         9
  37.6000        15
  37.6500        15
  37.7000        16
  37.7500        18
  37.8000        22
  37.8500        22
  37.9000        11
  37.9500        15
  38.0000        15
  38.0500         8
  38.1000        10
  38.1500        19
  38.2000        18
  38.2500        15
  38.3000        17
  38.3500        12
  38.4000        18
  38.4500        14
  38.5000        17
  38.5500        11
  38.6000        18
  38.6500        21
  38.7000        30
  38.7500        23
  38.8000        22
  38.8500        13
  38.9000        15
  38.9500         8
  39.0000        11
  39.0500         8
  39.1000        16
  39.1500         9
  39.2000         9
  39.2500        21
  39.3000        10
  39.3500        13
  39.4000        17
  39.4500        14
  39.5000         9
  39.5500        13
  39.6000        17
  39.6500        17
  39.7000        12
  39.7500        22
  39.8000        16
  39.8500        12
  39.9000        17
  39.9500        20
  40.0000        14
  40.0500        12
  40.1000        23
  40.1500        14
  40.2000        16
  40.2500        18
  40.3000        19
  40.3500        15
  40.4000         9
  40.4500        20
  40.5000        11
  40.5500         8
  40.6000        11
  40.6500        17
  40.7000        10
  40.7500        17
  40.8000        10
  40.8500        11
  40.9000        16
  40.9500        19
  41.0000        11
  41.0500        17
  41.1000        14
  41.1500         8
  41.2000        11
  41.2500        17
  41.3000        10
  41.3500        17
  41.4000         8
  41.4500        19
  41.5000         9
  41.5500        16
  41.6000        18
  41.6500        17
  41.7000         8
  41.7500        13
  41.8000        13
  41.8500        10
  41.9000         7
  41.9500        19
  42.0000        11
  42.0500        14
  42.1000        13
  42.1500        19
  42.2000        16
  42.2500        18
  42.3000        15
  42.3500         9
  42.4000        12
  42.4500        14
  42.5000         9
  42.5500        15
  42.6000         9
  42.6500        23
  42.7000        13
  42.7500        18
  42.8000         9
  42.8500        10
  42.9000        15
  42.9500        18
  43.0000        13
  43.0500        11
  43.1000        12
  43.1500         8
  43.2000        12
  43.2500         6
  43.3000        21
  43.3500        13
  43.4000        15
  43.4500        10
  43.5000        13
  43.5500        16
  43.6000        16
  43.6500         7
  43.7000        14
  43.7500        14
  43.8000        19
  43.8500        26
  43.9000        24
  43.9500        24
  44.0000        40
  44.0500        26
  44.1000        10
  44.1500        18
  44.2000         9
  44.2500        13
  44.3000        14
  44.3500        17
  44.4000        20
  44.4500        17
  44.5000         5
  44.5500        19
  44.6000        13
  44.6500        23
  44.7000        16
  44.7500        27
  44.8000        45
  44.8500        55
  44.9000        95
  44.9500       112
  45.0000        66
  45.0500        69
  45.1000        43
  45.1500        21
  45.2000        19
  45.2500        15
  45.3000        10
  45.3500        22
  45.4000        17
  45.4500        12
  45.5000        11
  45.5500        19
  45.6000        10
  45.6500        13
  45.7000        12
  45.7500        10
  45.8000        11
  45.8500        12
  45.9000         6
  45.9500        14
  46.0000         5
  46.0500        14
  46.1000        13
  46.1500         5
  46.2000        13
  46.2500        13
  46.3000        16
  46.3500        10
  46.4000        14
  46.4500        11
  46.5000        17
  46.5500        15
  46.6000        12
  46.6500        19
  46.7000        15
  46.7500        13
  46.8000        15
  46.8500        13
  46.9000         9
  46.9500        15
  47.0000        12
  47.0500        14
  47.1000         7
  47.1500        10
  47.2000        15
  47.2500        14
  47.3000        19
  47.3500        13
  47.4000        15
  47.4500        15
  47.5000        13
  47.5500        13
  47.6000        12
  47.6500        17
  47.7000         9
  47.7500        18
  47.8000        11
  47.8500        17
  47.9000        17
  47.9500        11
  48.0000        13
  48.0500        19
  48.1000        13
  48.1500        14
  48.2000        19
  48.2500        13
  48.3000        12
  48.3500        21
  48.4000        13
  48.4500        12
  48.5000        13
  48.5500        14
  48.6000         9
  48.6500        10
  48.7000        14
  48.7500        11
  48.8000        13
  48.8500        10
  48.9000        18
  48.9500         7
  49.0000        11
  49.0500        11
  49.1000         7
  49.1500        10
  49.2000        12
  49.2500        16
  49.3000        13
  49.3500        12
  49.4000        10
  49.4500        11
  49.5000        12
  49.5500        18
  49.6000        16
  49.6500        18
  49.7000        16
  49.7500        16
  49.8000        18
  49.8500        21
  49.9000        18
  49.9500        13
  50.0000        16
  50.0500        19
  50.1000        10
  50.1500        11
  50.2000        13
  50.2500        14
  50.3000        16
  50.3500        22
  50.4000        17
  50.4500        10
  50.5000        16
  50.5500        15
  50.6000        13
  50.6500        13
  50.7000        18
  50.7500        16
  50.8000        15
  50.8500        15
  50.9000        16
  50.9500        28
  51.0000        22
  51.0500        17
  51.1000        10
  51.1500        16
  51.2000        13
  51.2500        16
  51.3000        17
  51.3500        17
  51.4000        11
  51.4500        14
  51.5000        18
  51.5500        14
  51.6000        20
  51.6500        24
  51.7000        17
  51.7500        21
  51.8000        26
  51.8500        22
  51.9000        29
  51.9500        16
  52.0000        32
  52.0500        36
  52.1000        65
  52.1500       128
  52.2000       195
  52.2500       290
  52.3000       372
  52.3500       362
  52.4000       260
  52.4500       219
  52.5000       155
  52.5500        97
  52.6000        43
  52.6500        26
  52.7000        27
  52.7500        24
  52.8000        18
  52.8500        24
  52.9000        20
  52.9500        19
  53.0000        16
  53.0500        15
  53.1000        21
  53.1500        22
  53.2000        18
  53.2500        19
  53.3000        18
  53.3500        21
  53.4000        19
  53.4500        15
  53.5000        21
  53.5500        17
  53.6000        18
  53.6500        12
  53.7000        20
  53.7500        23
  53.8000        11
  53.8500        10
  53.9000        20
  53.9500         6
  54.0000        13
  54.0500         7
  54.1000        16
  54.1500        21
  54.2000        17
  54.2500        15
  54.3000        23
  54.3500        18
  54.4000        25
  54.4500        11
  54.5000        15
  54.5500        19
  54.6000        18
  54.6500        15
  54.7000        17
  54.7500        23
  54.8000        18
  54.8500        10
  54.9000        13
  54.9500        12
  55.0000        21
  55.0500        16
  55.1000        14
  55.1500        14
  55.2000        17
  55.2500        30
  55.3000        29
  55.3500        37
  55.4000        38
  55.4500        28
  55.5000        26
  55.5500        30
  55.6000        19
  55.6500        10
  55.7000        17
  55.7500        22
  55.8000        17
  55.8500        14
  55.9000        15
  55.9500        16
  56.0000        12
  56.0500        22
  56.1000        18
  56.1500        20
  56.2000        19
  56.2500        12
  56.3000        14
  56.3500        21
  56.4000        11
  56.4500        10
  56.5000        16
  56.5500        24
  56.6000        15
  56.6500        14
  56.7000        10
  56.7500        19
  56.8000        17
  56.8500        17
  56.9000        14
  56.9500        19
  57.0000        16
  57.0500        20
  57.1000        17
  57.1500        14
  57.2000        13
  57.2500         9
  57.3000        18
  57.3500        12
  57.4000        18
  57.4500        13
  57.5000        25
  57.5500        20
  57.6000        20
  57.6500        21
  57.7000         8
  57.7500        18
  57.8000        14
  57.8500        23
  57.9000        12
  57.9500        16
  58.0000        14
  58.0500        18
  58.1000        18
  58.1500        15
  58.2000        30
  58.2500        14
  58.3000        17
  58.3500        16
  58.4000        20
  58.4500        25
  58.5000        19
  58.5500        16
  58.6000        15
  58.6500        17
  58.7000        17
  58.7500        21
  58.8000        13
  58.8500        21
  58.9000        15
  58.9500        14
  59.0000        19
  59.0500        19
  59.1000        25
  59.1500        15
  59.2000        22
  59.2500        16
  59.3000        19
  59.3500        20
  59.4000        15
  59.4500        18
  59.5000        17
  59.5500        12
  59.6000        14
  59.6500        12
  59.7000        17
  59.7500        15
  59.8000        14
  59.8500        20
  59.9000        23
  59.9500        21
  60.0000        22
  60.0500        28
  60.1000        24
  60.1500        17
  60.2000        12
  60.2500        19
  60.3000        13
  60.3500         9
  60.4000        23
  60.4500        22
  60.5000        14
  60.5500        18
  60.6000        21
  60.6500        30
  60.7000        12
  60.7500        19
  60.8000        15
  60.8500        27
  60.9000        16
  60.9500        22
  61.0000        18
  61.0500        22
  61.1000        16
  61.1500        24
  61.2000        31
  61.2500        18
  61.3000        12
  61.3500        20
  61.4000        20
  61.4500        29
  61.5000        18
  61.5500        24
  61.6000        19
  61.6500        20
  61.7000        32
  61.7500        23
  61.8000        27
  61.8500        27
  61.9000        34
  61.9500        51
  62.0000        61
  62.0500        90
  62.1000       181
  62.1500       341
  62.2000       349
  62.2500       355
  62.3000       340
  62.3500       260
  62.4000       223
  62.4500       173
  62.5000       106
  62.5500        85
  62.6000        48
  62.6500        49
  62.7000        32
  62.7500        36
  62.8000        27
  62.8500        20
  62.9000        23
  62.9500        29
  63.0000        19
  63.0500        21
  63.1000        12
  63.1500        21
  63.2000        23
  63.2500        22
  63.3000        18
  63.3500        14
  63.4000        21
  63.4500        14
  63.5000        18
  63.5500        18
  63.6000        15
  63.6500        10
  63.7000        26
  63.7500        16
  63.8000        22
  63.8500        30
  63.9000        17
  63.9500        17
  64.0000        23
  64.0500        19
  64.1000        23
  64.1500        21
  64.2000        23
  64.2500        18
  64.3000        12
  64.3500        14
  64.4000        15
  64.4500        16
  64.5000        23
  64.5500        49
  64.6000        46
  64.6500        37
  64.7000        26
  64.7500        23
  64.8000        37
  64.8500        25
  64.9000        11
  64.9500        11
  65.0000        21
  65.0500        21
  65.1000        28
  65.1500        38
  65.2000        66
  65.2500       105
  65.3000       146
  65.3500       141
  65.4000       125
  65.4500        75
  65.5000        99
  65.5500        59
  65.6000        41
  65.6500        27
  65.7000        22
  65.7500        21
  65.8000        26
  65.8500        14
  65.9000        12
  65.9500        10
  66.0000        23
  66.0500        17
  66.1000        22
  66.1500        18
  66.2000        21
  66.2500        21
  66.3000        15
  66.3500        13
  66.4000        18
  66.4500        13
  66.5000        11
  66.5500        17
  66.6000        18
  66.6500        12
  66.7000        12
  66.7500        15
  66.8000        21
  66.8500        16
  66.9000        12
  66.9500        12
  67.0000        14
  67.0500        12
  67.1000        18
  67.1500        15
  67.2000        16
  67.2500         8
  67.3000        14
  67.3500        20
  67.4000        13
  67.4500        21
  67.5000        17
  67.5500        12
  67.6000        16
  67.6500        15
  67.7000        15
  67.7500        16
  67.8000        14
  67.8500        11
  67.9000        17
  67.9500        17
  68.0000        18
  68.0500        12
  68.1000         9
  68.1500        13
  68.2000        17
  68.2500        12
  68.3000        11
  68.3500        14
  68.4000        14
  68.4500        18
  68.5000        10
  68.5500        13
  68.6000        11
  68.6500        12
  68.7000        12
  68.7500        19
  68.8000        14
  68.8500        12
  68.9000        13
  68.9500        19
  69.0000        11
  69.0500        13
  69.1000         8
  69.1500         9
  69.2000        19
  69.2500        12
  69.3000        20
  69.3500        15
  69.4000        11
  69.4500        22
  69.5000         9
  69.5500        16
  69.6000        18
  69.6500        19
  69.7000        20
  69.7500        17
  69.8000        15
  69.8500        11
  69.9000        13
  69.9500         5
  70.0000        17
  70.0500         7
  70.1000        15
  70.1500        16
  70.2000        12
  70.2500        12
  70.3000        19
  70.3500        11
  70.4000        17
  70.4500        13
  70.5000         9
  70.5500        16
  70.6000        15
  70.6500        16
  70.7000         8
  70.7500        13
  70.8000        14
  70.8500         7
  70.9000        12
  70.9500         8
  71.0000        12
  71.0500        10
  71.1000        12
  71.1500        12
  71.2000        12
  71.2500        11
  71.3000        11
  71.3500        17
  71.4000        14
  71.4500         8
  71.5000        13
  71.5500        10
  71.6000        15
  71.6500        14
  71.7000        12
  71.7500        15
  71.8000         9
  71.8500        16
  71.9000        15
  71.9500        10
  72.0000        10
  72.0500        16
  72.1000        13
  72.1500        18
  72.2000        19
  72.2500        10
  72.3000        11
  72.3500        13
  72.4000        23
  72.4500        24
  72.5000        21
  72.5500        14
  72.6000        15
  72.6500        22
  72.7000        14
  72.7500        12
  72.8000        18
  72.8500        18
  72.9000        11
  72.9500        11
  73.0000        19
  73.0500        13
  73.1000        15
  73.1500        15
  73.2000        22
  73.2500        18
  73.3000        16
  73.3500        16
  73.4000        16
  73.4500        14
  73.5000        15
  73.5500         8
  73.6000        13
  73.6500        16
  73.7000         7
  73.7500        10
  73.8000        13
  73.8500        18
  73.9000        11
  73.9500        16
  74.0000        16
  74.0500        12
  74.1000        13
  74.1500        13
  74.2000        17
  74.2500        13
  74.3000        13
  74.3500        11
  74.4000        12
  74.4500        13
  74.5000        11
  74.5500        12
  74.6000        21
  74.6500        11
  74.7000        10
  74.7500        20
  74.8000         6
  74.8500         9
  74.9000        16
  74.9500         9
  75.0000        14
  75.0500        10
  75.1000        10
  75.1500        15
  75.2000        13
  75.2500        13
  75.3000         9
  75.3500        11
  75.4000        11
  75.4500        11
  75.5000        17
  75.5500        20
  75.6000        10
  75.6500        11
  75.7000        15
  75.7500        12
  75.8000         5
  75.8500         9
  75.9000        14
  75.9500        19
  76.0000        17
  76.0500        13
  76.1000        14
  76.1500        18
  76.2000        10
  76.2500        13
  76.3000        22
  76.3500        20
  76.4000        18
  76.4500        15
  76.5000        13
  76.5500        15
  76.6000        15
  76.6500        20
  76.7000        15
  76.7500        20
  76.8000        12
  76.8500        25
  76.9000        23
  76.9500        25
  77.0000        46
  77.0500        55
  77.1000        49
  77.1500        35
  77.2000        40
  77.2500        41
  77.3000        39
  77.3500        32
  77.4000        30
  77.4500        28
  77.5000        18
  77.5500        17
  77.6000        20
  77.6500         7
  77.7000         9
  77.7500        20
  77.8000        13
  77.8500        11
  77.9000        19
  77.9500         8
  78.0000        15
  78.0500        14
  78.1000        15
  78.1500        11
  78.2000        17
  78.2500        16
  78.3000        13
  78.3500        12
  78.4000        10
  78.4500         8
  78.5000        10
  78.5500         9
  78.6000        14
  78.6500        13
  78.7000        21
  78.7500         9
  78.8000         7
  78.8500        16
  78.9000        15
  78.9500        15
  79.0000        12
  79.0500        15
  79.1000        17
  79.1500        14
  79.2000        10
  79.2500        14
  79.3000        14
  79.3500        15
  79.4000        20
  79.4500        35
  79.5000        33
  79.5500        45
  79.6000        42
  79.6500        34
  79.7000        15
  79.7500        21
  79.8000        28
  79.8500        23
  79.9000        19
  79.9500        18
  80.0000        10
  80.0500        12
  80.1000        12
  80.1500        12
  80.2000        13
  80.2500        13
  80.3000        15
  80.3500         8
  80.4000        12
  80.4500        13
  80.5000        13
  80.5500        11
  80.6000        23
  80.6500        13
  80.7000        11
  80.7500        23
  80.8000        14
  80.8500         7
  80.9000        14
  80.9500        20
  81.0000        18
  81.0500         6
  81.1000        13
  81.1500        12
  81.2000        13
  81.2500         7
  81.3000        19
  81.3500        12
  81.4000        14
  81.4500        17
  81.5000        13
  81.5500        15
  81.6000        14
  81.6500         9
  81.7000        13
  81.7500        13
  81.8000        11
  81.8500        11
  81.9000        17
  81.9500         6
  82.0000        16
  82.0500        15
  82.1000         7
  82.1500         9
  82.2000        14
  82.2500        14
  82.3000        20
  82.3500        17
  82.4000        14
  82.4500        10
  82.5000        19
  82.5500        23
  82.6000        18
  82.6500        14
  82.7000        13
  82.7500        10
  82.8000        14
  82.8500        18
  82.9000         9
  82.9500        16
  83.0000        14
  83.0500        14
  83.1000        11
  83.1500        19
  83.2000         9
  83.2500        12
  83.3000         9
  83.3500        21
  83.4000        11
  83.4500        12
  83.5000        16
  83.5500        19
  83.6000        12
  83.6500        16
  83.7000        14
  83.7500        21
  83.8000        15
  83.8500        11
  83.9000         7
  83.9500        14
  84.0000        16
  84.0500        15
  84.1000        18
  84.1500        11
  84.2000        14
  84.2500        12
  84.3000        16
  84.3500        13
  84.4000        11
  84.4500        16
  84.5000        20
  84.5500        12
  84.6000        10
  84.6500        23
  84.7000        23
  84.7500        16
  84.8000        19
  84.8500        20
  84.9000        19
  84.9500        11
  85.0000        13
  85.0500        16
  85.1000        13
  85.1500        19
  85.2000        27
  85.2500        19
  85.3000        25
  85.3500        37
  85.4000        58
  85.4500        96
  85.5000       110
  85.5500       117
  85.6000        87
  85.6500        62
  85.7000        63
  85.7500        56
  85.8000        75
  85.8500        46
  85.9000        40
  85.9500        32
  86.0000        27
  86.0500        26
  86.1000        21
  86.1500        18
  86.2000        22
  86.2500        18
  86.3000        20
  86.3500        29
  86.4000        17
  86.4500        20
  86.5000        11
  86.5500        13
  86.6000        14
  86.6500        10
  86.7000        15
  86.7500        21
  86.8000        19
  86.8500        18
  86.9000        12
  86.9500        17
  87.0000        16
  87.0500        16
  87.1000        13
  87.1500        21
  87.2000        16
  87.2500        15
  87.3000        18
  87.3500        22
  87.4000        19
  87.4500        14
  87.5000        21
  87.5500        11
  87.6000        17
  87.6500        12
  87.7000        21
  87.7500        14
  87.8000        18
  87.8500        26
  87.9000        21
  87.9500        21
  88.0000        21
  88.0500        26
  88.1000        30
  88.1500        51
  88.2000        61
  88.2500        74
  88.3000        85
  88.3500        75
  88.4000        60
  88.4500        60
  88.5000        49
  88.5500        48
  88.6000        42
  88.6500        35
  88.7000        37
  88.7500        21
  88.8000        30
  88.8500        16
  88.9000        20
  88.9500        15
  89.0000        21
  89.0500        23
  89.1000        21
  89.1500        21
  89.2000        24
  89.2500        18
  89.3000        20
  89.3500        19
  89.4000        29
  89.4500        28
  89.5000        29
  89.5500        16
  89.6000        20
  89.6500        26
  89.7000        22
  89.7500        22
  89.8000        16
  89.8500        15
  89.9000        20
  89.9500        15
  90.0000        14
  90.0500        14
  90.1000        26
  90.1500        17
  90.2000        17
  90.2500        15
  90.3000        15
  90.3500         6
  90.4000        15
  90.4500        21
  90.5000        10
  90.5500        17
  90.6000        13
  90.6500        22
  90.7000        14
  90.7500        25
  90.8000        18
  90.8500        11
  90.9000        18
  90.9500        12
  91.0000        13
  91.0500        17
  91.1000        14
  91.1500        17
  91.2000        11
  91.2500        19
  91.3000        10
  91.3500        18
  91.4000        11
  91.4500        10
  91.5000        13
  91.5500        18
  91.6000        18
  91.6500        12
  91.7000        10
  91.7500        15
  91.8000        10
  91.8500         9
  91.9000        14
  91.9500        16
  92.0000        23
  92.0500        13
  92.1000        14
  92.1500        17
  92.2000        19
  92.2500        12
  92.3000        19
  92.3500        14
  92.4000        15
  92.4500        13
  92.5000        11
  92.5500        14
  92.6000        11
  92.6500        15
  92.7000        18
  92.7500        16
  92.8000        11
  92.8500        10
  92.9000        16
  92.9500        12
  93.0000        16
  93.0500        11
  93.1000        16
  93.1500        14
  93.2000        19
  93.2500        16
  93.3000        13
  93.3500        19
  93.4000        12
  93.4500        13
  93.5000        13
  93.5500        14
  93.6000        19
  93.6500         9
  93.7000        17
  93.7500        14
  93.8000        18
  93.8500        14
  93.9000        10
  93.9500         9
  94.0000        11
  94.0500        13
  94.1000        17
  94.1500        23
  94.2000        14
  94.2500        16
  94.3000        13
  94.3500        12
  94.4000         9
  94.4500        16
  94.5000        21
  94.5500        19
  94.6000        12
  94.6500        12
  94.7000        14
  94.7500        16
  94.8000        12
  94.8500        18
  94.9000        10
  94.9500        13
  95.0000        17
  95.0500        19
  95.1000        23
  95.1500        16
  95.2000        19
  95.2500        20
  95.3000        25
  95.3500        10
  95.4000        16
  95.4500        21
  95.5000        15
  95.5500        21
  95.6000        11
  95.6500        20
  95.7000        18
  95.7500        12
  95.8000        24
  95.8500        24
  95.9000        15
  95.9500        16
  96.0000        15
  96.0500        11
  96.1000        17
  96.1500        16
  96.2000        16
  96.2500        11
  96.3000        10
  96.3500        14
  96.4000        12
  96.4500        14
  96.5000        15
  96.5500        14
  96.6000        14
  96.6500        18
  96.7000        13
  96.7500        13
  96.8000         9
  96.8500        23
  96.9000        12
  96.9500        15
  97.0000        22
  97.0500        17
  97.1000        11
  97.1500        18
  97.2000        15
  97.2500        12
  97.3000        12
  97.3500         8
  97.4000        21
  97.4500        26
  97.5000        19
  97.5500        20
  97.6000        10
  97.6500        15
  97.7000        22
  97.7500        11
  97.8000        18
  97.8500        23
  97.9000        15
  97.9500        19
  98.0000        18
  98.0500        11
  98.1000        12
  98.1500         9
  98.2000         8
  98.2500        12
  98.3000        15
  98.3500        11
  98.4000        16
  98.4500        15
  98.5000        16
  98.5500        12
  98.6000        14
  98.6500        15
  98.7000        16
  98.7500        17
  98.8000        22
  98.8500        16
  98.9000        17
  98.9500        16
  99.0000        21
  99.0500        21
  99.1000        18
  99.1500        20
  99.2000        23
  99.2500        26
  99.3000        36
  99.3500        47
  99.4000        55
  99.4500        62
  99.5000        67
  99.5500        49
  99.6000        33
  99.6500        36
  99.7000        31
  99.7500        41
  99.8000        43
  99.8500        28
  99.9000        27
  99.9500        23
 100.0000        18
 100.0500        17
 100.1000        13
 100.1500        20
 100.2000        13
 100.2500        10
 100.3000        16
 100.3500        22
 100.4000        14
 100.4500        16
 100.5000        14
 100.5500        17
 100.6000        14
 100.6500        25
 100.7000        15
 100.7500        13
 100.8000        16
 100.8500        16
 100.9000        11
 100.9500        14
 101.0000        15
 101.0500        20
 101.1000        16
 101.1500        16
 101.2000        11
 101.2500        14
 101.3000        11
 101.3500        17
 101.4000        12
 101.4500        18
 101.5000        17
 101.5500        18
 101.6000        15
 101.6500        20
 101.7000        16
 101.7500        13
 101.8000        12
 101.8500        14
 101.9000        13
 101.9500        15
 102.0000         9
 102.0500        13
 102.1000        13
 102.1500        13
 102.2000        26
 102.2500        11
 102.3000        22
 102.3500        11
 102.4000        16
 102.4500        20
 102.5000        19
 102.5500        16
 102.6000        19
 102.6500        12
 102.7000        25
 102.7500        16
 102.8000        17
 102.8500        24
 102.9000        16
 102.9500        15
 103.0000        14
 103.0500        25
 103.1000        18
 103.1500        17
 103.2000        14
 103.2500        19
 103.3000         9
 103.3500        24
 103.4000        21
 103.4500        12
 103.5000        14
 103.5500        14
 103.6000        15
 103.6500        16
 103.7000        15
 103.7500        18
 103.8000        14
 103.8500        14
 103.9000        19
 103.9500        16
 104.0000        13
 104.0500        16
 104.1000        14
 104.1500        11
 104.2000        17
 104.2500        16
 104.3000        20
 104.3500        19
 104.4000        16
 104.4500        11
 104.5000        11
 104.5500        15
 104.6000        10
 104.6500        14
 104.7000        16
 104.7500        16
 104.8000        20
 104.8500        12
 104.9000        16
 104.9500        17
 105.0000        16
 105.0500        17
 105.1000        18
 105.1500        24
 105.2000        12
 105.2500        23
 105.3000        18
 105.3500        11
 105.4000        15
 105.4500        16
 105.5000        14
 105.5500         8
 105.6000        16
 105.6500        16
 105.7000        25
 105.7500        17
 105.8000        16
 105.8500        18
 105.9000        14
 105.9500        24
 106.0000        14
 106.0500        11
 106.1000        15
 106.1500        15
 106.2000        10
 106.2500        19
 106.3000        14
 106.3500        19
 106.4000        12
 106.4500        13
 106.5000        13
 106.5500        17
 106.6000        13
 106.6500        27
 106.7000        18
 106.7500        10
 106.8000        19
 106.8500        19
 106.9000        15
 106.9500        18
 107.0000        16
 107.0500        18
 107.1000        19
 107.1500        24
 107.2000        14
 107.2500        11
 107.3000         8
 107.3500        25
 107.4000        14
 107.4500        19
 107.5000        29
 107.5500         8
 107.6000        24
 107.6500        19
 107.7000        22
 107.7500        20
 107.8000        25
 107.8500        26
 107.9000        48
 107.9500        57
 108.0000        59
 108.0500        74
 108.1000        67
 108.1500        54
 108.2000        32
 108.2500        45
 108.3000        32
 108.3500        37
 108.4000        40
 108.4500        44
 108.5000        42
 108.5500        40
 108.6000        26
 108.6500        24
 108.7000        25
 108.7500        17
 108.8000        19
 108.8500        31
 108.9000        14
 108.9500        13
 109.0000        17
 109.0500        17
 109.1000        12
 109.1500        12
 109.2000        12
 109.2500        16
 109.3000        15
 109.3500        14
 109.4000        16
 109.4500        15
 109.5000         9
 109.5500        17
 109.6000        19
 109.6500        17
 109.7000        11
 109.7500        17
 109.8000        19
 109.8500        17
 109.9000        14
 109.9500        12
 110.0000        11
