  10.0000        34
  10.0500        38
  10.1000        31
  10.1500        29
  10.2000        27
  10.2500        24
  10.3000        31
  10.3500        32
  10.4000        33
  10.4500        36
  10.5000        40
  10.5500        32
  10.6000        41
  10.6500        35
  10.7000        35
  10.7500        32
  10.8000        34
  10.8500        29
  10.9000        18
  10.9500        30
  11.0000        20
  11.0500        35
  11.1000        31
  11.1500        34
  11.2000        20
  11.2500        34
  11.3000        24
  11.3500        21
  11.4000        21
  11.4500        31
  11.5000        35
  11.5500        25
  11.6000        20
  11.6500        32
  11.7000        27
  11.7500        21
  11.8000        22
  11.8500        21
  11.9000        24
  11.9500        22
  12.0000        24
  12.0500        29
  12.1000        26
  12.1500        28
  12.2000        30
  12.2500        36
  12.3000        35
  12.3500        26
  12.4000        36
  12.4500        27
  12.5000        25
  12.5500        32
  12.6000        29
  12.6500        17
  12.7000        23
  12.7500        33
  12.8000        31
  12.8500        33
  12.9000        20
  12.9500        20
  13.0000        30
  13.0500        36
  13.1000        17
  13.1500        26
  13.2000        27
  13.2500        35
  13.3000        27
  13.3500        23
  13.4000        22
  13.4500        30
  13.5000        26
  13.5500        24
  13.6000        33
  13.6500        32
  13.7000        27
  13.7500        29
  13.8000        26
  13.8500        28
  13.9000        27
  13.9500        25
  14.0000        31
  14.0500        23
  14.1000        22
  14.1500        29
  14.2000        25
  14.2500        28
  14.3000        32
  14.3500        24
  14.4000        30
  14.4500        21
  14.5000        33
  14.5500        26
  14.6000        28
  14.6500        35
  14.7000        26
  14.7500        32
  14.8000        28
  14.8500        24
  14.9000        22
  14.9500        27
  15.0000        25
  15.0500        22
  15.1000        14
  15.1500        23
  15.2000        26
  15.2500        21
  15.3000        25
  15.3500        25
  15.4000        28
  15.4500        31
  15.5000        27
  15.5500        31
  15.6000        22
  15.6500        23
  15.7000        27
  15.7500        20
  15.8000        29
  15.8500        29
  15.9000        27
  15.9500        27
  16.0000        30
  16.0500        34
  16.1000        26
  16.1500        21
  16.2000        23
  16.2500        20
  16.3000        28
  16.3500        36
  16.4000        24
  16.4500        27
  16.5000        33
  16.5500        31
  16.6000        38
  16.6500        27
  16.7000        31
  16.7500        33
  16.8000        21
  16.8500        23
  16.9000        18
  16.9500        27
  17.0000        13
  17.0500        25
  17.1000        31
  17.1500        25
  17.2000        19
  17.2500        36
  17.3000        25
  17.3500        24
  17.4000        29
  17.4500        28
  17.5000        24
  17.5500        28
  17.6000        28
  17.6500        29
  17.7000        22
  17.7500        25
  17.8000        28
  17.8500        24
  17.9000        29
  17.9500        31
  18.0000        29
  18.0500        22
  18.1000        20
  18.1500        29
  18.2000        40
  18.2500        24
  18.3000        25
  18.3500        26
  18.4000        33
  18.4500        30
  18.5000        32
  18.5500        26
  18.6000        29
  18.6500        26
  18.7000        29
  18.7500        26
  18.8000        34
  18.8500        17
  18.9000        34
  18.9500        32
  19.0000        17
  19.0500        28
  19.1000        17
  19.1500        24
  19.2000        19
  19.2500        24
  19.3000        31
  19.3500        23
  19.4000        28
  19.4500        33
  19.5000        22
  19.5500        23
  19.6000        33
  19.6500        25
  19.7000        25
  19.7500        26
  19.8000        22
  19.8500        32
  19.9000        31
  19.9500        29
  20.0000        23
  20.0500        25
  20.1000        28
  20.1500        24
  20.2000        31
  20.2500        24
  20.3000        26
  20.3500        18
  20.4000        18
  20.4500        34
  20.5000        23
  20.5500        22
  20.6000        19
  20.6500        29
  20.7000        25
  20.7500        17
  20.8000        20
  20.8500        23
  20.9000        33
  20.9500        15
  21.0000        28
  21.0500        29
  21.1000        25
  21.1500        28
  21.2000        21
  21.2500        21
  21.3000        30
  21.3500        37
  21.4000        25
  21.4500        33
  21.5000        26
  21.5500        25
  21.6000        31
  21.6500        25
  21.7000        25
  21.7500        26
  21.8000        24
  21.8500        31
  21.9000        23
  21.9500        25
  22.0000        23
  22.0500        29
  22.1000        20
  22.1500        19
  22.2000        24
  22.2500        37
  22.3000        27
  22.3500        26
  22.4000        22
  22.4500        24
  22.5000        23
  22.5500        33
  22.6000        19
  22.6500        16
  22.7000        25
  22.7500        28
  22.8000        24
  22.8500        27
  22.9000        25
  22.9500        30
  23.0000        25
  23.0500        21
  23.1000        22
  23.1500        28
  23.2000        21
  23.2500        22
  23.3000        28
  23.3500        21
  23.4000        31
  23.4500        24
  23.5000        22
  23.5500        28
  23.6000        36
  23.6500        23
  23.7000        31
  23.7500        20
  23.8000        32
  23.8500        34
  23.9000        35
  23.9500        30
  24.0000        37
  24.0500        19
  24.1000        24
  24.1500        24
  24.2000        28
  24.2500        25
  24.3000        25
  24.3500        25
  24.4000        26
  24.4500        25
  24.5000        37
  24.5500        30
  24.6000        22
  24.6500        25
  24.7000        30
  24.7500        30
  24.8000        21
  24.8500        22
  24.9000        29
  24.9500        21
  25.0000        14
  25.0500        34
  25.1000        24
  25.1500        27
  25.2000        20
  25.2500        22
  25.3000        16
  25.3500        26
  25.4000        32
  25.4500        32
  25.5000        26
  25.5500        20
  25.6000        14
  25.6500        21
  25.7000        13
  25.7500        24
  25.8000        20
  25.8500        34
  25.9000        27
  25.9500        28
  26.0000        27
  26.0500        27
  26.1000        25
  26.1500        18
  26.2000        22
  26.2500        32
  26.3000        29
  26.3500        29
  26.4000        18
  26.4500        13
  26.5000        30
  26.5500        24
  26.6000        24
  26.6500        27
  26.7000        30
  26.7500        26
  26.8000        14
  26.8500        16
  26.9000        24
  26.9500        29
  27.0000        19
  27.0500        21
  27.1000        20
  27.1500        25
  27.2000        21
  27.2500        28
  27.3000        17
  27.3500        27
  27.4000        21
  27.4500        22
  27.5000        31
  27.5500        25
  27.6000        22
  27.6500        26
  27.7000        28
  27.7500        27
  27.8000        27
  27.8500        35
  27.9000        29
  27.9500        22
  28.0000        24
  28.0500        29
  28.1000        18
  28.1500        23
  28.2000        27
  28.2500        28
  28.3000        31
  28.3500        18
  28.4000        29
  28.4500        26
  28.5000        18
  28.5500        24
  28.6000        20
  28.6500        18
  28.7000        31
  28.7500        32
  28.8000        28
  28.8500        30
  28.9000        28
  28.9500        21
  29.0000        27
  29.0500        30
  29.1000        27
  29.1500        22
  29.2000        24
  29.2500        22
  29.3000        34
  29.3500        23
  29.4000        22
  29.4500        24
  29.5000        16
  29.5500        35
  29.6000        17
  29.6500        21
  29.7000        21
  29.7500        32
  29.8000        18
  29.8500        25
  29.9000        16
  29.9500        29
  30.0000        20
  30.0500        26
  30.1000        21
  30.1500        27
  30.2000        18
  30.2500        17
  30.3000        23
  30.3500        30
  30.4000        20
  30.4500        27
  30.5000        21
  30.5500        22
  30.6000        20
  30.6500        27
  30.7000        21
  30.7500        26
  30.8000        26
  30.8500        18
  30.9000        32
  30.9500        21
  31.0000        27
  31.0500        35
  31.1000        21
  31.1500        23
  31.2000        25
  31.2500        17
  31.3000        23
  31.3500        29
  31.4000        38
  31.4500        24
  31.5000        26
  31.5500        24
  31.6000        32
  31.6500        28
  31.7000        19
  31.7500        30
  31.8000        28
  31.8500        27
  31.9000        34
  31.9500        17
  32.0000        22
  32.0500        25
  32.1000        25
  32.1500        32
  32.2000        26
  32.2500        41
  32.3000        24
  32.3500        23
  32.4000        25
  32.4500        19
  32.5000        35
  32.5500        32
  32.6000        28
  32.6500        17
  32.7000        33
  32.7500        28
  32.8000        31
  32.8500        22
  32.9000        24
  32.9500        22
  33.0000        20
  33.0500        20
  33.1000        22
  33.1500        30
  33.2000        25
  33.2500        27
  33.3000        25
  33.3500        26
  33.4000        18
  33.4500        26
  33.5000        29
  33.5500        27
  33.6000        27
  33.6500        33
  33.7000        14
  33.7500        24
  33.8000        26
  33.8500        26
  33.9000        29
  33.9500        30
  34.0000        24
  34.0500        32
  34.1000        23
  34.1500        28
  34.2000        26
  34.2500        24
  34.3000        18
  34.3500        21
  34.4000        26
  34.4500        27
  34.5000        20
  34.5500        30
  34.6000        27
  34.6500        27
  34.7000        19
  34.7500        31
  34.8000        24
  34.8500        31
  34.9000        14
  34.9500        15
  35.0000        20
  35.0500        24
  35.1000        32
  35.1500        30
  35.2000        24
  35.2500        29
  35.3000        24
  35.3500        26
  35.4000        28
  35.4500        24
  35.5000        24
  35.5500        22
  35.6000        33
  35.6500        24
  35.7000        24
  35.7500        21
  35.8000        24
  35.8500        22
  35.9000        30
  35.9500        30
  36.0000        16
  36.0500        26
  36.1000        24
  36.1500        32
  36.2000        30
  36.2500        21
  36.3000        26
  36.3500        32
  36.4000        21
  36.4500        28
  36.5000        20
  36.5500        31
  36.6000        39
  36.6500        19
  36.7000        29
  36.7500        22
  36.8000        19
  36.8500        25
  36.9000        23
  36.9500        31
  37.0000        30
  37.0500        39
  37.1000        20
  37.1500        30
  37.2000        22
  37.2500        36
  37.3000        30
  37.3500        33
  37.4000        37
  37.4500        20
  37.5000        29
  37.5500        25
  37.6000        25
  37.6500        22
  37.7000        21
  37.7500        30
  37.8000        29
  37.8500        18
  37.9000        29
  37.9500        18
  38.0000        29
  38.0500        20
  38.1000        21
  38.1500        23
  38.2000        23
  38.2500        27
  38.3000        27
  38.3500        27
  38.4000        22
  38.4500        24
  38.5000        30
  38.5500        32
  38.6000        28
  38.6500        31
  38.7000        32
  38.7500        30
  38.8000        23
  38.8500        26
  38.9000        31
  38.9500        31
  39.0000        27
  39.0500        33
  39.1000        22
  39.1500        31
  39.2000        20
  39.2500        30
  39.3000        19
  39.3500        33
  39.4000        30
  39.4500        14
  39.5000        22
  39.5500        26
  39.6000        28
  39.6500        18
  39.7000        33
  39.7500        35
  39.8000        29
  39.8500        20
  39.9000        27
  39.9500        27
  40.0000        30
  40.0500        16
  40.1000        24
  40.1500        20
  40.2000        35
  40.2500        29
  40.3000        39
  40.3500        31
  40.4000        26
  40.4500        26
  40.5000        24
  40.5500        32
  40.6000        26
  40.6500        19
  40.7000        33
  40.7500        25
  40.8000        26
  40.8500        32
  40.9000        23
  40.9500        24
  41.0000        36
  41.0500        31
  41.1000        30
  41.1500        26
  41.2000        30
  41.2500        33
  41.3000        32
  41.3500        25
  41.4000        30
  41.4500        31
  41.5000        26
  41.5500        31
  41.6000        28
  41.6500        34
  41.7000        36
  41.7500        21
  41.8000        34
  41.8500        37
  41.9000        32
  41.9500        26
  42.0000        31
  42.0500        28
  42.1000        37
  42.1500        27
  42.2000        25
  42.2500        33
  42.3000        27
  42.3500        35
  42.4000        39
  42.4500        26
  42.5000        26
  42.5500        22
  42.6000        48
  42.6500        38
  42.7000        35
  42.7500        31
  42.8000        43
  42.8500        48
  42.9000        54
  42.9500        54
  43.0000        51
  43.0500        51
  43.1000        48
  43.1500        46
  43.2000        55
  43.2500        54
  43.3000        72
  43.3500        55
  43.4000        59
  43.4500        71
  43.5000        63
  43.5500        78
  43.6000        81
  43.6500        85
  43.7000        98
  43.7500       109
  43.8000       161
  43.8500       159
  43.9000       266
  43.9500       338
  44.0000       509
  44.0500       826
  44.1000      1081
  44.1500      1489
  44.2000      1804
  44.2500      1871
  44.3000      1714
  44.3500      1478
  44.4000      1091
  44.4500       795
  44.5000       562
  44.5500       339
  44.6000       213
  44.6500       163
  44.7000       126
  44.7500        97
  44.8000        87
  44.8500        79
  44.9000        64
  44.9500        60
  45.0000        47
  45.0500        40
  45.1000        43
  45.1500        39
  45.2000        38
  45.2500        39
  45.3000        42
  45.3500        33
  45.4000        35
  45.4500        41
  45.5000        39
  45.5500        41
  45.6000        40
  45.6500        44
  45.7000        39
  45.7500        36
  45.8000        39
  45.8500        35
  45.9000        33
  45.9500        31
  46.0000        35
  46.0500        46
  46.1000        35
  46.1500        28
  46.2000        29
  46.2500        44
  46.3000        30
  46.3500        30
  46.4000        36
  46.4500        25
  46.5000        32
  46.5500        26
  46.6000        29
  46.6500        32
  46.7000        23
  46.7500        38
  46.8000        38
  46.8500        34
  46.9000        26
  46.9500        29
  47.0000        40
  47.0500        29
  47.1000        31
  47.1500        25
  47.2000        28
  47.2500        21
  47.3000        22
  47.3500        37
  47.4000        27
  47.4500        39
  47.5000        22
  47.5500        29
  47.6000        26
  47.6500        32
  47.7000        23
  47.7500        29
  47.8000        36
  47.8500        33
  47.9000        29
  47.9500        31
  48.0000        33
  48.0500        23
  48.1000        29
  48.1500        22
  48.2000        32
  48.2500        31
  48.3000        31
  48.3500        29
  48.4000        28
  48.4500        15
  48.5000        36
  48.5500        24
  48.6000        36
  48.6500        29
  48.7000        26
  48.7500        26
  48.8000        26
  48.8500        32
  48.9000        28
  48.9500        36
  49.0000        31
  49.0500        39
  49.1000        23
  49.1500        30
  49.2000        31
  49.2500        26
  49.3000        31
  49.3500        30
  49.4000        33
  49.4500        23
  49.5000        33
  49.5500        25
  49.6000        45
  49.6500        22
  49.7000        42
  49.7500        31
  49.8000        36
  49.8500        50
  49.9000        25
  49.9500        35
  50.0000        35
  50.0500        49
  50.1000        45
  50.1500        42
  50.2000        41
  50.2500        43
  50.3000        35
  50.3500        41
  50.4000        38
  50.4500        37
  50.5000        35
  50.5500        37
  50.6000        43
  50.6500        50
  50.7000        48
  50.7500        52
  50.8000        59
  50.8500        47
  50.9000        60
  50.9500        81
  51.0000        88
  51.0500       117
  51.1000       132
  51.1500       142
  51.2000       215
  51.2500       252
  51.3000       326
  51.3500       410
  51.4000       514
  51.4500       591
  51.5000       597
  51.5500       613
  51.6000       603
  51.6500       543
  51.7000       455
  51.7500       431
  51.8000       327
  51.8500       254
  51.9000       188
  51.9500       150
  52.0000       127
  52.0500       107
  52.1000        91
  52.1500        67
  52.2000        61
  52.2500        55
  52.3000        48
  52.3500        55
  52.4000        34
  52.4500        36
  52.5000        38
  52.5500        39
  52.6000        27
  52.6500        30
  52.7000        39
  52.7500        33
  52.8000        40
  52.8500        39
  52.9000        25
  52.9500        27
  53.0000        32
  53.0500        31
  53.1000        25
  53.1500        32
  53.2000        47
  53.2500        30
  53.3000        23
  53.3500        28
  53.4000        23
  53.4500        19
  53.5000        24
  53.5500        26
  53.6000        31
  53.6500        34
  53.7000        23
  53.7500        30
  53.8000        36
  53.8500        24
  53.9000        25
  53.9500        35
  54.0000        28
  54.0500        29
  54.1000        30
  54.1500        23
  54.2000        35
  54.2500        25
  54.3000        34
  54.3500        36
  54.4000        28
  54.4500        26
  54.5000        30
  54.5500        18
  54.6000        28
  54.6500        37
  54.7000        36
  54.7500        38
  54.8000        27
  54.8500        31
  54.9000        18
  54.9500        39
  55.0000        26
  55.0500        34
  55.1000        28
  55.1500        26
  55.2000        27
  55.2500        30
  55.3000        27
  55.3500        27
  55.4000        28
  55.4500        23
  55.5000        36
  55.5500        35
  55.6000        21
  55.6500        18
  55.7000        22
  55.7500        20
  55.8000        16
  55.8500        17
  55.9000        31
  55.9500        22
  56.0000        28
  56.0500        20
  56.1000        29
  56.1500        32
  56.2000        29
  56.2500        21
  56.3000        26
  56.3500        26
  56.4000        35
  56.4500        37
  56.5000        38
  56.5500        30
  56.6000        25
  56.6500        24
  56.7000        21
  56.7500        22
  56.8000        23
  56.8500        39
  56.9000        19
  56.9500        23
  57.0000        34
  57.0500        26
  57.1000        26
  57.1500        26
  57.2000        35
  57.2500        28
  57.3000        24
  57.3500        25
  57.4000        31
  57.4500        34
  57.5000        17
  57.5500        25
  57.6000        28
  57.6500        27
  57.7000        22
  57.7500        36
  57.8000        23
  57.8500        32
  57.9000        27
  57.9500        26
  58.0000        25
  58.0500        26
  58.1000        38
  58.1500        27
  58.2000        17
  58.2500        29
  58.3000        31
  58.3500        21
  58.4000        19
  58.4500        27
  58.5000        29
  58.5500        34
  58.6000        23
  58.6500        24
  58.7000        30
  58.7500        30
  58.8000        32
  58.8500        35
  58.9000        24
  58.9500        25
  59.0000        26
  59.0500        31
  59.1000        23
  59.1500        26
  59.2000        28
  59.2500        29
  59.3000        32
  59.3500        34
  59.4000        23
  59.4500        26
  59.5000        28
  59.5500        28
  59.6000        28
  59.6500        22
  59.7000        33
  59.7500        38
  59.8000        19
  59.8500        33
  59.9000        29
  59.9500        28
  60.0000        27
  60.0500        30
  60.1000        25
  60.1500        30
  60.2000        31
  60.2500        37
  60.3000        26
  60.3500        25
  60.4000        25
  60.4500        23
  60.5000        33
  60.5500        23
  60.6000        28
  60.6500        16
  60.7000        22
  60.7500        32
  60.8000        33
  60.8500        22
  60.9000        26
  60.9500        27
  61.0000        24
  61.0500        35
  61.1000        24
  61.1500        21
  61.2000        23
  61.2500        25
  61.3000        25
  61.3500        46
  61.4000        20
  61.4500        30
  61.5000        28
  61.5500        33
  61.6000        36
  61.6500        20
  61.7000        26
  61.7500        25
  61.8000        37
  61.8500        20
  61.9000        25
  61.9500        31
  62.0000        26
  62.0500        21
  62.1000        35
  62.1500        25
  62.2000        25
  62.2500        34
  62.3000        29
  62.3500        33
  62.4000        30
  62.4500        26
  62.5000        31
  62.5500        27
  62.6000        35
  62.6500        23
  62.7000        19
  62.7500        35
  62.8000        24
  62.8500        26
  62.9000        29
  62.9500        28
  63.0000        21
  63.0500        24
  63.1000        25
  63.1500        39
  63.2000        28
  63.2500        37
  63.3000        42
  63.3500        25
  63.4000        33
  63.4500        29
  63.5000        29
  63.5500        24
  63.6000        29
  63.6500        20
  63.7000        30
  63.7500        22
  63.8000        25
  63.8500        34
  63.9000        29
  63.9500        25
  64.0000        29
  64.0500        24
  64.1000        27
  64.1500        38
  64.2000        20
  64.2500        25
  64.3000        34
  64.3500        30
  64.4000        29
  64.4500        32
  64.5000        22
  64.5500        30
  64.6000        30
  64.6500        21
  64.7000        26
  64.7500        30
  64.8000        30
  64.8500        27
  64.9000        20
  64.9500        29
  65.0000        31
  65.0500        26
  65.1000        18
  65.1500        33
  65.2000        23
  65.2500        28
  65.3000        22
  65.3500        23
  65.4000        27
  65.4500        23
  65.5000        20
  65.5500        27
  65.6000        36
  65.6500        40
  65.7000        24
  65.7500        30
  65.8000        24
  65.8500        28
  65.9000        26
  65.9500        33
  66.0000        24
  66.0500        18
  66.1000        26
  66.1500        25
  66.2000        33
  66.2500        20
  66.3000        24
  66.3500        28
  66.4000        32
  66.4500        28
  66.5000        25
  66.5500        29
  66.6000        27
  66.6500        33
  66.7000        26
  66.7500        19
  66.8000        24
  66.8500        19
  66.9000        25
  66.9500        20
  67.0000        20
  67.0500        20
  67.1000        20
  67.1500        39
  67.2000        21
  67.2500        33
  67.3000        30
  67.3500        30
  67.4000        22
  67.4500        27
  67.5000        28
  67.5500        35
  67.6000        27
  67.6500        21
  67.7000        28
  67.7500        19
  67.8000        34
  67.8500        28
  67.9000        24
  67.9500        21
  68.0000        34
  68.0500        22
  68.1000        33
  68.1500        20
  68.2000        31
  68.2500        25
  68.3000        21
  68.3500        23
  68.4000        26
  68.4500        27
  68.5000        33
  68.5500        30
  68.6000        27
  68.6500        23
  68.7000        27
  68.7500        29
  68.8000        34
  68.8500        27
  68.9000        30
  68.9500        20
  69.0000        27
  69.0500        26
  69.1000        29
  69.1500        26
  69.2000        25
  69.2500        21
  69.3000        23
  69.3500        41
  69.4000        33
  69.4500        24
  69.5000        29
  69.5500        26
  69.6000        28
  69.6500        16
  69.7000        30
  69.7500        28
  69.8000        37
  69.8500        25
  69.9000        26
  69.9500        28
  70.0000        25
  70.0500        32
  70.1000        24
  70.1500        26
  70.2000        24
  70.2500        32
  70.3000        27
  70.3500        28
  70.4000        24
  70.4500        20
  70.5000        32
  70.5500        27
  70.6000        31
  70.6500        33
  70.7000        22
  70.7500        29
  70.8000        27
  70.8500        29
  70.9000        28
  70.9500        18
  71.0000        32
  71.0500        24
  71.1000        28
  71.1500        41
  71.2000        31
  71.2500        23
  71.3000        30
  71.3500        28
  71.4000        27
  71.4500        28
  71.5000        19
  71.5500        32
  71.6000        33
  71.6500        31
  71.7000        25
  71.7500        29
  71.8000        25
  71.8500        36
  71.9000        30
  71.9500        19
  72.0000        31
  72.0500        28
  72.1000        12
  72.1500        21
  72.2000        27
  72.2500        21
  72.3000        29
  72.3500        25
  72.4000        27
  72.4500        25
  72.5000        24
  72.5500        33
  72.6000        34
  72.6500        38
  72.7000        22
  72.7500        27
  72.8000        29
  72.8500        33
  72.9000        21
  72.9500        21
  73.0000        32
  73.0500        31
  73.1000        26
  73.1500        26
  73.2000        35
  73.2500        27
  73.3000        35
  73.3500        31
  73.4000        32
  73.4500        27
  73.5000        29
  73.5500        26
  73.6000        30
  73.6500        25
  73.7000        28
  73.7500        24
  73.8000        30
  73.8500        30
  73.9000        20
  73.9500        31
  74.0000        35
  74.0500        33
  74.1000        22
  74.1500        33
  74.2000        25
  74.2500        33
  74.3000        38
  74.3500        29
  74.4000        25
  74.4500        27
  74.5000        40
  74.5500        25
  74.6000        32
  74.6500        28
  74.7000        44
  74.7500        28
  74.8000        33
  74.8500        43
  74.9000        41
  74.9500        30
  75.0000        50
  75.0500        42
  75.1000        47
  75.1500        40
  75.2000        58
  75.2500        53
  75.3000        57
  75.3500        61
  75.4000        74
  75.4500        82
  75.5000        89
  75.5500       133
  75.6000       141
  75.6500       154
  75.7000       190
  75.7500       239
  75.8000       231
  75.8500       276
  75.9000       278
  75.9500       247
  76.0000       242
  76.0500       231
  76.1000       226
  76.1500       169
  76.2000       159
  76.2500       107
  76.3000       140
  76.3500       100
  76.4000        83
  76.4500        68
  76.5000        64
  76.5500        61
  76.6000        49
  76.6500        46
  76.7000        42
  76.7500        43
  76.8000        53
  76.8500        34
  76.9000        29
  76.9500        50
  77.0000        36
  77.0500        34
  77.1000        39
  77.1500        39
  77.2000        27
  77.2500        29
  77.3000        29
  77.3500        31
  77.4000        33
  77.4500        32
  77.5000        25
  77.5500        33
  77.6000        36
  77.6500        24
  77.7000        26
  77.7500        32
  77.8000        39
  77.8500        31
  77.9000        29
  77.9500        25
  78.0000        26
  78.0500        42
  78.1000        33
  78.1500        34
  78.2000        34
  78.2500        29
  78.3000        35
  78.3500        25
  78.4000        33
  78.4500        28
  78.5000        28
  78.5500        30
  78.6000        33
  78.6500        31
  78.7000        31
  78.7500        36
  78.8000        34
  78.8500        31
  78.9000        25
  78.9500        31
  79.0000        29
  79.0500        25
  79.1000        33
  79.1500        36
  79.2000        25
  79.2500        33
  79.3000        24
  79.3500        20
  79.4000        27
  79.4500        34
  79.5000        34
  79.5500        26
  79.6000        37
  79.6500        36
  79.7000        25
  79.7500        42
  79.8000        23
  79.8500        30
  79.9000        27
  79.9500        31
  80.0000        25
  80.0500        23
  80.1000        33
  80.1500        25
  80.2000        28
  80.2500        26
  80.3000        26
  80.3500        24
  80.4000        17
  80.4500        26
  80.5000        27
  80.5500        33
  80.6000        32
  80.6500        21
  80.7000        30
  80.7500        36
  80.8000        31
  80.8500        31
  80.9000        19
  80.9500        32
  81.0000        24
  81.0500        27
  81.1000        29
  81.1500        20
  81.2000        24
  81.2500        37
  81.3000        30
  81.3500        27
  81.4000        28
  81.4500        31
  81.5000        28
  81.5500        20
  81.6000        31
  81.6500        25
  81.7000        37
  81.7500        37
  81.8000        26
  81.8500        20
  81.9000        28
  81.9500        20
  82.0000        33
  82.0500        34
  82.1000        33
  82.1500        37
  82.2000        31
  82.2500        24
  82.3000        22
  82.3500        32
  82.4000        32
  82.4500        32
  82.5000        34
  82.5500        24
  82.6000        26
  82.6500        24
  82.7000        37
  82.7500        30
  82.8000        22
  82.8500        36
  82.9000        22
  82.9500        35
  83.0000        32
  83.0500        29
  83.1000        27
  83.1500        35
  83.2000        30
  83.2500        24
  83.3000        30
  83.3500        34
  83.4000        36
  83.4500        23
  83.5000        30
  83.5500        37
  83.6000        22
  83.6500        29
  83.7000        41
  83.7500        29
  83.8000        32
  83.8500        23
  83.9000        27
  83.9500        28
  84.0000        21
  84.0500        33
  84.1000        30
  84.1500        33
  84.2000        21
  84.2500        29
  84.3000        21
  84.3500        23
  84.4000        35
  84.4500        33
  84.5000        31
  84.5500        19
  84.6000        27
  84.6500        23
  84.7000        24
  84.7500        38
  84.8000        16
  84.8500        24
  84.9000        23
  84.9500        35
  85.0000        34
  85.0500        29
  85.1000        19
  85.1500        24
  85.2000        28
  85.2500        26
  85.3000        30
  85.3500        37
  85.4000        23
  85.4500        25
  85.5000        30
  85.5500        29
  85.6000        25
  85.6500        25
  85.7000        31
  85.7500        24
  85.8000        29
  85.8500        20
  85.9000        38
  85.9500        24
  86.0000        20
  86.0500        23
  86.1000        24
  86.1500        35
  86.2000        30
  86.2500        18
  86.3000        29
  86.3500        33
  86.4000        20
  86.4500        27
  86.5000        30
  86.5500        32
  86.6000        38
  86.6500        23
  86.7000        32
  86.7500        25
  86.8000        35
  86.8500        28
  86.9000        24
  86.9500        33
  87.0000        37
  87.0500        27
  87.1000        25
  87.1500        32
  87.2000        32
  87.2500        28
  87.3000        29
  87.3500        22
  87.4000        22
  87.4500        31
  87.5000        39
  87.5500        22
  87.6000        25
  87.6500        25
  87.7000        30
  87.7500        27
  87.8000        32
  87.8500        24
  87.9000        28
  87.9500        24
  88.0000        21
  88.0500        25
  88.1000        36
  88.1500        38
  88.2000        24
  88.2500        37
  88.3000        25
  88.3500        43
  88.4000        26
  88.4500        26
  88.5000        25
  88.5500        36
  88.6000        32
  88.6500        33
  88.7000        27
  88.7500        33
  88.8000        35
  88.8500        25
  88.9000        24
  88.9500        29
  89.0000        31
  89.0500        33
  89.1000        32
  89.1500        32
  89.2000        26
  89.2500        28
  89.3000        34
  89.3500        24
  89.4000        28
  89.4500        36
  89.5000        36
  89.5500        32
  89.6000        23
  89.6500        39
  89.7000        25
  89.7500        32
  89.8000        33
  89.8500        28
  89.9000        26
  89.9500        46
  90.0000        24
  90.0500        35
  90.1000        33
  90.1500        32
  90.2000        31
  90.2500        33
  90.3000        25
  90.3500        33
  90.4000        20
  90.4500        35
  90.5000        27
  90.5500        36
  90.6000        31
  90.6500        32
  90.7000        31
  90.7500        28
  90.8000        29
  90.8500        40
  90.9000        38
  90.9500        24
  91.0000        34
  91.0500        42
  91.1000        40
  91.1500        54
  91.2000        51
  91.2500        49
  91.3000        60
  91.3500        43
  91.4000        44
  91.4500        57
  91.5000        53
  91.5500        60
  91.6000        60
  91.6500        78
  91.7000        72
  91.7500       107
  91.8000       108
  91.8500       122
  91.9000       119
  91.9500       142
  92.0000       160
  92.0500       167
  92.1000       194
  92.1500       200
  92.2000       214
  92.2500       248
  92.3000       203
  92.3500       210
  92.4000       225
  92.4500       230
  92.5000       205
  92.5500       170
  92.6000       167
  92.6500       165
  92.7000       132
  92.7500       125
  92.8000       106
  92.8500        95
  92.9000        98
  92.9500        77
  93.0000        67
  93.0500        67
  93.1000        64
  93.1500        56
  93.2000        69
  93.2500        62
  93.3000        46
  93.3500        53
  93.4000        45
  93.4500        38
  93.5000        41
  93.5500        41
  93.6000        32
  93.6500        34
  93.7000        42
  93.7500        42
  93.8000        34
  93.8500        34
  93.9000        30
  93.9500        36
  94.0000        29
  94.0500        30
  94.1000        27
  94.1500        30
  94.2000        26
  94.2500        21
  94.3000        30
  94.3500        31
  94.4000        31
  94.4500        23
  94.5000        28
  94.5500        30
  94.6000        26
  94.6500        32
  94.7000        26
  94.7500        30
  94.8000        27
  94.8500        21
  94.9000        33
  94.9500        31
  95.0000        29
  95.0500        23
  95.1000        32
  95.1500        27
  95.2000        18
  95.2500        34
  95.3000        29
  95.3500        28
  95.4000        32
  95.4500        29
  95.5000        23
  95.5500        33
  95.6000        34
  95.6500        34
  95.7000        27
  95.7500        34
  95.8000        27
  95.8500        30
  95.9000        31
  95.9500        36
  96.0000        28
  96.0500        31
  96.1000        33
  96.1500        36
  96.2000        25
  96.2500        25
  96.3000        25
  96.3500        35
  96.4000        29
  96.4500        26
  96.5000        30
  96.5500        23
  96.6000        32
  96.6500        36
  96.7000        38
  96.7500        46
  96.8000        36
  96.8500        34
  96.9000        32
  96.9500        43
  97.0000        33
  97.0500        39
  97.1000        50
  97.1500        45
  97.2000        46
  97.2500        45
  97.3000        57
  97.3500        48
  97.4000        52
  97.4500        77
  97.5000        59
  97.5500        79
  97.6000        84
  97.6500        80
  97.7000       119
  97.7500        91
  97.8000        93
  97.8500       101
  97.9000        90
  97.9500        83
  98.0000        92
  98.0500        76
  98.1000        59
  98.1500        56
  98.2000        70
  98.2500        62
  98.3000        52
  98.3500        49
  98.4000        32
  98.4500        37
  98.5000        45
  98.5500        29
  98.6000        33
  98.6500        31
  98.7000        48
  98.7500        33
  98.8000        38
  98.8500        22
  98.9000        40
  98.9500        27
  99.0000        25
  99.0500        34
  99.1000        37
  99.1500        26
  99.2000        35
  99.2500        25
  99.3000        24
  99.3500        26
  99.4000        29
  99.4500        29
  99.5000        24
  99.5500        33
  99.6000        28
  99.6500        28
  99.7000        26
  99.7500        39
  99.8000        28
  99.8500        20
  99.9000        31
  99.9500        35
 100.0000        34
 100.0500        31
 100.1000        33
 100.1500        25
 100.2000        26
 100.2500        29
 100.3000        30
 100.3500        26
 100.4000        23
 100.4500        24
 100.5000        29
 100.5500        31
 100.6000        32
 100.6500        29
 100.7000        33
 100.7500        33
 100.8000        21
 100.8500        27
 100.9000        31
 100.9500        31
 101.0000        24
 101.0500        27
 101.1000        32
 101.1500        31
 101.2000        26
 101.2500        32
 101.3000        39
 101.3500        22
 101.4000        34
 101.4500        25
 101.5000        22
 101.5500        23
 101.6000        21
 101.6500        16
 101.7000        36
 101.7500        25
 101.8000        26
 101.8500        38
 101.9000        20
 101.9500        21
 102.0000        24
 102.0500        19
 102.1000        36
 102.1500        29
 102.2000        32
 102.2500        35
 102.3000        19
 102.3500        23
 102.4000        37
 102.4500        26
 102.5000        41
 102.5500        37
 102.6000        27
 102.6500        28
 102.7000        36
 102.7500        25
 102.8000        37
 102.8500        21
 102.9000        28
 102.9500        28
 103.0000        30
 103.0500        34
 103.1000        31
 103.1500        23
 103.2000        39
 103.2500        35
 103.3000        26
 103.3500        20
 103.4000        34
 103.4500        35
 103.5000        29
 103.5500        17
 103.6000        30
 103.6500        30
 103.7000        30
 103.7500        19
 103.8000        33
 103.8500        30
 103.9000        32
 103.9500        30
 104.0000        31
 104.0500        20
 104.1000        34
 104.1500        32
 104.2000        31
 104.2500        34
 104.3000        30
 104.3500        28
 104.4000        40
 104.4500        32
 104.5000        16
 104.5500        35
 104.6000        38
 104.6500        22
 104.7000        22
 104.7500        28
 104.8000        28
 104.8500        25
 104.9000        25
 104.9500        44
 105.0000        26
 105.0500        18
 105.1000        36
 105.1500        31
 105.2000        32
 105.2500        27
 105.3000        23
 105.3500        42
 105.4000        28
 105.4500        27
 105.5000        35
 105.5500        26
 105.6000        30
 105.6500        30
 105.7000        40
 105.7500        21
 105.8000        24
 105.8500        28
 105.9000        31
 105.9500        25
 106.0000        28
 106.0500        30
 106.1000        21
 106.1500        25
 106.2000        38
 106.2500        24
 106.3000        31
 106.3500        32
 106.4000        20
 106.4500        28
 106.5000        26
 106.5500        31
 106.6000        26
 106.6500        34
 106.7000        24
 106.7500        32
 106.8000        35
 106.8500        27
 106.9000        30
 106.9500        24
 107.0000        26
 107.0500        17
 107.1000        23
 107.1500        36
 107.2000        28
 107.2500        24
 107.3000        28
 107.3500        17
 107.4000        26
 107.4500        37
 107.5000        27
 107.5500        21
 107.6000        21
 107.6500        34
 107.7000        34
 107.7500        30
 107.8000        27
 107.8500        17
 107.9000        26
 107.9500        35
 108.0000        26
 108.0500        33
 108.1000        30
 108.1500        22
 108.2000        32
 108.2500        30
 108.3000        22
 108.3500        31
 108.4000        25
 108.4500        28
 108.5000        31
 108.5500        22
 108.6000        34
 108.6500        32
 108.7000        29
 108.7500        26
 108.8000        25
 108.8500        28
 108.9000        22
 108.9500        26
 109.0000        40
 109.0500        34
 109.1000        25
 109.1500        30
 109.2000        25
 109.2500        32
 109.3000        25
 109.3500        25
 109.4000        36
 109.4500        25
 109.5000        22
 109.5500        35
 109.6000        30
 109.6500        22
 109.7000        27
 109.7500        31
 109.8000        30
 109.8500        31
 109.9000        19
 109.9500        13
 110.0000        31
