  10.0000        24
  10.0500        27
  10.1000        22
  10.1500        30
  10.2000        35
  10.2500        32
  10.3000        35
  10.3500        33
  10.4000        31
  10.4500        31
  10.5000        24
  10.5500        29
  10.6000        31
  10.6500        31
  10.7000        28
  10.7500        25
  10.8000        25
  10.8500        31
  10.9000        25
  10.9500        22
  11.0000        25
  11.0500        28
  11.1000        28
  11.1500        29
  11.2000        36
  11.2500        16
  11.3000        23
  11.3500        23
  11.4000        29
  11.4500        36
  11.5000        23
  11.5500        22
  11.6000        30
  11.6500        21
  11.7000        21
  11.7500        28
  11.8000        24
  11.8500        26
  11.9000        29
  11.9500        23
  12.0000        25
  12.0500        30
  12.1000        18
  12.1500        22
  12.2000        27
  12.2500        19
  12.3000        27
  12.3500        19
  12.4000        33
  12.4500        24
  12.5000        28
  12.5500        22
  12.6000        19
  12.6500        26
  12.7000        23
  12.7500        28
  12.8000        27
  12.8500        23
  12.9000        17
  12.9500        18
  13.0000        19
  13.0500        24
  13.1000        20
  13.1500        31
  13.2000        28
  13.2500        22
  13.3000        29
  13.3500        34
  13.4000        24
  13.4500        21
  13.5000        24
  13.5500        24
  13.6000        34
  13.6500        23
  13.7000        24
  13.7500        21
  13.8000        19
  13.8500        28
  13.9000        29
  13.9500        28
  14.0000        23
  14.0500        23
  14.1000        20
  14.1500        18
  14.2000        19
  14.2500        19
  14.3000        30
  14.3500        18
  14.4000        34
  14.4500        22
  14.5000        24
  14.5500        27
  14.6000        31
  14.6500        23
  14.7000        25
  14.7500        21
  14.8000        30
  14.8500        21
  14.9000        22
  14.9500        15
  15.0000        23
  15.0500        28
  15.1000        22
  15.1500        24
  15.2000        17
  15.2500        22
  15.3000        26
  15.3500        29
  15.4000        29
  15.4500        26
  15.5000        24
  15.5500        25
  15.6000        25
  15.6500        30
  15.7000        17
  15.7500        25
  15.8000        23
  15.8500        30
  15.9000        25
  15.9500        31
  16.0000        33
  16.0500        28
  16.1000        26
  16.1500        24
  16.2000        26
  16.2500        23
  16.3000        28
  16.3500        19
  16.4000        12
  16.4500        26
  16.5000        23
  16.5500        21
  16.6000        22
  16.6500        16
  16.7000        20
  16.7500        21
  16.8000        26
  16.8500        24
  16.9000        16
  16.9500        31
  17.0000        29
  17.0500        33
  17.1000        31
  17.1500        30
  17.2000        34
  17.2500        18
  17.3000        33
  17.3500        15
  17.4000        15
  17.4500        25
  17.5000        23
  17.5500        22
  17.6000        19
  17.6500        19
  17.7000        23
  17.7500        28
  17.8000        27
  17.8500        14
  17.9000        31
  17.9500        22
  18.0000        21
  18.0500        22
  18.1000        32
  18.1500        17
  18.2000        20
  18.2500        23
  18.3000        16
  18.3500        18
  18.4000        18
  18.4500        16
  18.5000        23
  18.5500        22
  18.6000        23
  18.6500        28
  18.7000        26
  18.7500        20
  18.8000        26
  18.8500        15
  18.9000        17
  18.9500        32
  19.0000        26
  19.0500        19
  19.1000        23
  19.1500        20
  19.2000        41
  19.2500        20
  19.3000        23
  19.3500        23
  19.4000        24
  19.4500        25
  19.5000        25
  19.5500        15
  19.6000        20
  19.6500        15
  19.7000        21
  19.7500        20
  19.8000        24
  19.8500        22
  19.9000        31
  19.9500        23
  20.0000        19
  20.0500        26
  20.1000        17
  20.1500        22
  20.2000        18
  20.2500        17
  20.3000        20
  20.3500        27
  20.4000        24
  20.4500        28
  20.5000        27
  20.5500        23
  20.6000        15
  20.6500        21
  20.7000        28
  20.7500        18
  20.8000        22
  20.8500        24
  20.9000        24
  20.9500        19
  21.0000        34
  21.0500        24
  21.1000        21
  21.1500        19
  21.2000        25
  21.2500        28
  21.3000        30
  21.3500        15
  21.4000        17
  21.4500        25
  21.5000        29
  21.5500        20
  21.6000        17
  21.6500        22
  21.7000        19
  21.7500        31
  21.8000        24
  21.8500        21
  21.9000        28
  21.9500        31
  22.0000         9
  22.0500        27
  22.1000        18
  22.1500        22
  22.2000        17
  22.2500        17
  22.3000        17
  22.3500        22
  22.4000        28
  22.4500        23
  22.5000        20
  22.5500        30
  22.6000        26
  22.6500        30
  22.7000        20
  22.7500        20
  22.8000        21
  22.8500        24
  22.9000        23
  22.9500        19
  23.0000        21
  23.0500        25
  23.1000        29
  23.1500        16
  23.2000        25
  23.2500        27
  23.3000        21
  23.3500        33
  23.4000        20
  23.4500        31
  23.5000        21
  23.5500        23
  23.6000        29
  23.6500        24
  23.7000        18
  23.7500        25
  23.8000        18
  23.8500        29
  23.9000        21
  23.9500        19
  24.0000        23
  24.0500        22
  24.1000        33
  24.1500        24
  24.2000        21
  24.2500        27
  24.3000        23
  24.3500        17
  24.4000        18
  24.4500        16
  24.5000        18
  24.5500        25
  24.6000        22
  24.6500        27
  24.7000        22
  24.7500        17
  24.8000        24
  24.8500        24
  24.9000        16
  24.9500        14
  25.0000        24
  25.0500        25
  25.1000        25
  25.1500        18
  25.2000        27
  25.2500        19
  25.3000        11
  25.3500        25
  25.4000        28
  25.4500        18
  25.5000        33
  25.5500        30
  25.6000        20
  25.6500        21
  25.7000        26
  25.7500        19
  25.8000        16
  25.8500        29
  25.9000        28
  25.9500        21
  26.0000        16
  26.0500        34
  26.1000        28
  26.1500        10
  26.2000        19
  26.2500        25
  26.3000        27
  26.3500        17
  26.4000        24
  26.4500        27
  26.5000        29
  26.5500        18
  26.6000        23
  26.6500        24
  26.7000        26
  26.7500        30
  26.8000        30
  26.8500        25
  26.9000        23
  26.9500        32
  27.0000        20
  27.0500        18
  27.1000        19
  27.1500        17
  27.2000        26
  27.2500        22
  27.3000        21
  27.3500        21
  27.4000        24
  27.4500        26
  27.5000        14
  27.5500        21
  27.6000        19
  27.6500        16
  27.7000        29
  27.7500        21
  27.8000        18
  27.8500        18
  27.9000        19
  27.9500        17
  28.0000        15
  28.0500        21
  28.1000        28
  28.1500        31
  28.2000        21
  28.2500        23
  28.3000        24
  28.3500        20
  28.4000        31
  28.4500        19
  28.5000        26
  28.5500        25
  28.6000        21
  28.6500        24
  28.7000        22
  28.7500        21
  28.8000        31
  28.8500        21
  28.9000        14
  28.9500        23
  29.0000        20
  29.0500        25
  29.1000        22
  29.1500        24
  29.2000        25
  29.2500        22
  29.3000        13
  29.3500        21
  29.4000        26
  29.4500        17
  29.5000        19
  29.5500        26
  29.6000        25
  29.6500        24
  29.7000        22
  29.7500        26
  29.8000        17
  29.8500        23
  29.9000        27
  29.9500        25
  30.0000        22
  30.0500        18
  30.1000        20
  30.1500        17
  30.2000        29
  30.2500        21
  30.3000        23
  30.3500        27
  30.4000        26
  30.4500        26
  30.5000        24
  30.5500        24
  30.6000        25
  30.6500        17
  30.7000        30
  30.7500        34
  30.8000        21
  30.8500        22
  30.9000        32
  30.9500        25
  31.0000        18
  31.0500        30
  31.1000        17
  31.1500        16
  31.2000        25
  31.2500        31
  31.3000        15
  31.3500        22
  31.4000        22
  31.4500        28
  31.5000        24
  31.5500        11
  31.6000        23
  31.6500        27
  31.7000        20
  31.7500        15
  31.8000        25
  31.8500        23
  31.9000        23
  31.9500        32
  32.0000        33
  32.0500        21
  32.1000        28
  32.1500        27
  32.2000        19
  32.2500        24
  32.3000        21
  32.3500        23
  32.4000        25
  32.4500        23
  32.5000        34
  32.5500        17
  32.6000        25
  32.6500        22
  32.7000        22
  32.7500        29
  32.8000        23
  32.8500        24
  32.9000        26
  32.9500        17
  33.0000        27
  33.0500        23
  33.1000        17
  33.1500        27
  33.2000        28
  33.2500        20
  33.3000        18
  33.3500        29
  33.4000        26
  33.4500        20
  33.5000        25
  33.5500        26
  33.6000        22
  33.6500        22
  33.7000        22
  33.7500        18
  33.8000        23
  33.8500         9
  33.9000        30
  33.9500        19
  34.0000        30
  34.0500        15
  34.1000        22
  34.1500        22
  34.2000        26
  34.2500        24
  34.3000        27
  34.3500        28
  34.4000        31
  34.4500        23
  34.5000        24
  34.5500        21
  34.6000        14
  34.6500        16
  34.7000        24
  34.7500        18
  34.8000        22
  34.8500        18
  34.9000        31
  34.9500        31
  35.0000        25
  35.0500        19
  35.1000        19
  35.1500        16
  35.2000        23
  35.2500        26
  35.3000        19
  35.3500        27
  35.4000        18
  35.4500        31
  35.5000        21
  35.5500        30
  35.6000        25
  35.6500        31
  35.7000        36
  35.7500        23
  35.8000        20
  35.8500        25
  35.9000        29
  35.9500        25
  36.0000        29
  36.0500        25
  36.1000        19
  36.1500        12
  36.2000        25
  36.2500        17
  36.3000        33
  36.3500        32
  36.4000        13
  36.4500        23
  36.5000        26
  36.5500        24
  36.6000        24
  36.6500        30
  36.7000        21
  36.7500        21
  36.8000        19
  36.8500        19
  36.9000        23
  36.9500        21
  37.0000        21
  37.0500        19
  37.1000        28
  37.1500        14
  37.2000        25
  37.2500        27
  37.3000        38
  37.3500        24
  37.4000        22
  37.4500        36
  37.5000        31
  37.5500        21
  37.6000        22
  37.6500        27
  37.7000        26
  37.7500        20
  37.8000        22
  37.8500        29
  37.9000        30
  37.9500        21
  38.0000        27
  38.0500        23
  38.1000        25
  38.1500        19
  38.2000        25
  38.2500        24
  38.3000        27
  38.3500        18
  38.4000        31
  38.4500        26
  38.5000        24
  38.5500        24
  38.6000        27
  38.6500        25
  38.7000        30
  38.7500        26
  38.8000        23
  38.8500        24
  38.9000        21
  38.9500        23
  39.0000        31
  39.0500        18
  39.1000        27
  39.1500        24
  39.2000        29
  39.2500        21
  39.3000        24
  39.3500        19
  39.4000        21
  39.4500        28
  39.5000        19
  39.5500        35
  39.6000        28
  39.6500        22
  39.7000        28
  39.7500        27
  39.8000        23
  39.8500        29
  39.9000        30
  39.9500        24
  40.0000        27
  40.0500        33
  40.1000        26
  40.1500        23
  40.2000        31
  40.2500        29
  40.3000        31
  40.3500        25
  40.4000        20
  40.4500        24
  40.5000        23
  40.5500        26
  40.6000        26
  40.6500        28
  40.7000        18
  40.7500        29
  40.8000        29
  40.8500        21
  40.9000        37
  40.9500        35
  41.0000        26
  41.0500        17
  41.1000        32
  41.1500        30
  41.2000        18
  41.2500        18
  41.3000        30
  41.3500        32
  41.4000        20
  41.4500        36
  41.5000        25
  41.5500        22
  41.6000        28
  41.6500        33
  41.7000        30
  41.7500        23
  41.8000        24
  41.8500        21
  41.9000        23
  41.9500        23
  42.0000        36
  42.0500        32
  42.1000        23
  42.1500        28
  42.2000        28
  42.2500        35
  42.3000        37
  42.3500        39
  42.4000        41
  42.4500        24
  42.5000        36
  42.5500        39
  42.6000        44
  42.6500        34
  42.7000        46
  42.7500        39
  42.8000        57
  42.8500        52
  42.9000        31
  42.9500        57
  43.0000        47
  43.0500        58
  43.1000        62
  43.1500        65
  43.2000        71
  43.2500        86
  43.3000        88
  43.3500        84
  43.4000       114
  43.4500       113
  43.5000       149
  43.5500       182
  43.6000       257
  43.6500       410
  43.7000       500
  43.7500       720
  43.8000       944
  43.8500      1305
  43.9000      1547
  43.9500      1685
  44.0000      1770
  44.0500      1641
  44.1000      1399
  44.1500      1087
  44.2000       783
  44.2500       546
  44.3000       369
  44.3500       238
  44.4000       188
  44.4500       124
  44.5000       101
  44.5500       103
  44.6000        71
  44.6500        68
  44.7000        68
  44.7500        59
  44.8000        61
  44.8500        63
  44.9000        49
  44.9500        48
  45.0000        42
  45.0500        35
  45.1000        37
  45.1500        42
  45.2000        57
  45.2500        47
  45.3000        23
  45.3500        22
  45.4000        37
  45.4500        41
  45.5000        48
  45.5500        35
  45.6000        35
  45.6500        30
  45.7000        34
  45.7500        42
  45.8000        27
  45.8500        26
  45.9000        26
  45.9500        25
  46.0000        38
  46.0500        18
  46.1000        28
  46.1500        29
  46.2000        36
  46.2500        29
  46.3000        34
  46.3500        28
  46.4000        15
  46.4500        20
  46.5000        34
  46.5500        33
  46.6000        26
  46.6500        23
  46.7000        21
  46.7500        21
  46.8000        21
  46.8500        25
  46.9000        35
  46.9500        29
  47.0000        36
  47.0500        30
  47.1000        26
  47.1500        35
  47.2000        32
  47.2500        29
  47.3000        26
  47.3500        26
  47.4000        29
  47.4500        29
  47.5000        25
  47.5500        27
  47.6000        27
  47.6500        25
  47.7000        23
  47.7500        37
  47.8000        18
  47.8500        29
  47.9000        24
  47.9500        23
  48.0000        30
  48.0500        27
  48.1000        27
  48.1500        28
  48.2000        33
  48.2500        26
  48.3000        31
  48.3500        26
  48.4000        28
  48.4500        26
  48.5000        22
  48.5500        35
  48.6000        23
  48.6500        36
  48.7000        27
  48.7500        24
  48.8000        26
  48.8500        31
  48.9000        28
  48.9500        32
  49.0000        33
  49.0500        23
  49.1000        26
  49.1500        31
  49.2000        42
  49.2500        34
  49.3000        27
  49.3500        32
  49.4000        32
  49.4500        35
  49.5000        26
  49.5500        40
  49.6000        31
  49.6500        37
  49.7000        34
  49.7500        35
  49.8000        38
  49.8500        34
  49.9000        37
  49.9500        46
  50.0000        36
  50.0500        34
  50.1000        45
  50.1500        30
  50.2000        49
  50.2500        34
  50.3000        42
  50.3500        44
  50.4000        56
  50.4500        64
  50.5000        63
  50.5500        65
  50.6000        82
  50.6500        87
  50.7000       112
  50.7500       126
  50.8000       169
  50.8500       186
  50.9000       234
  50.9500       265
  51.0000       341
  51.0500       410
  51.1000       478
  51.1500       479
  51.2000       548
  51.2500       573
  51.3000       562
  51.3500       476
  51.4000       394
  51.4500       390
  51.5000       310
  51.5500       238
  51.6000       181
  51.6500       148
  51.7000       113
  51.7500       100
  51.8000        83
  51.8500        57
  51.9000        49
  51.9500        49
  52.0000        56
  52.0500        40
  52.1000        49
  52.1500        43
  52.2000        47
  52.2500        47
  52.3000        38
  52.3500        44
  52.4000        25
  52.4500        37
  52.5000        33
  52.5500        23
  52.6000        30
  52.6500        22
  52.7000        26
  52.7500        32
  52.8000        30
  52.8500        31
  52.9000        29
  52.9500        25
  53.0000        22
  53.0500        19
  53.1000        30
  53.1500        33
  53.2000        27
  53.2500        31
  53.3000        28
  53.3500        33
  53.4000        25
  53.4500        28
  53.5000        40
  53.5500        28
  53.6000        36
  53.6500        23
  53.7000        32
  53.7500        23
  53.8000        18
  53.8500        16
  53.9000        29
  53.9500        30
  54.0000        22
  54.0500        24
  54.1000        32
  54.1500        27
  54.2000        30
  54.2500        26
  54.3000        21
  54.3500        22
  54.4000        24
  54.4500        34
  54.5000        29
  54.5500        24
  54.6000        22
  54.6500        24
  54.7000        29
  54.7500        24
  54.8000        34
  54.8500        26
  54.9000        30
  54.9500        27
  55.0000        32
  55.0500        33
  55.1000        27
  55.1500        25
  55.2000        23
  55.2500        29
  55.3000        29
  55.3500        33
  55.4000        19
  55.4500        32
  55.5000        22
  55.5500        18
  55.6000        20
  55.6500        28
  55.7000        31
  55.7500        27
  55.8000        13
  55.8500        26
  55.9000        30
  55.9500        16
  56.0000        28
  56.0500        32
  56.1000        23
  56.1500        31
  56.2000        31
  56.2500        32
  56.3000        32
  56.3500        21
  56.4000        35
  56.4500        38
  56.5000        22
  56.5500        39
  56.6000        28
  56.6500        26
  56.7000        22
  56.7500        26
  56.8000        25
  56.8500        25
  56.9000        32
  56.9500        27
  57.0000        18
  57.0500        25
  57.1000        29
  57.1500        26
  57.2000        22
  57.2500        27
  57.3000        26
  57.3500        30
  57.4000        27
  57.4500        18
  57.5000        20
  57.5500        19
  57.6000        35
  57.6500        28
  57.7000        25
  57.7500        25
  57.8000        26
  57.8500        26
  57.9000        26
  57.9500        22
  58.0000        28
  58.0500        28
  58.1000        23
  58.1500        17
  58.2000        27
  58.2500        32
  58.3000        18
  58.3500        32
  58.4000        39
  58.4500        17
  58.5000        16
  58.5500        24
  58.6000        19
  58.6500        33
  58.7000        39
  58.7500        24
  58.8000        23
  58.8500        24
  58.9000        19
  58.9500        21
  59.0000        28
  59.0500        26
  59.1000        24
  59.1500        23
  59.2000        29
  59.2500        29
  59.3000        21
  59.3500        25
  59.4000        26
  59.4500        15
  59.5000        29
  59.5500        26
  59.6000        31
  59.6500        17
  59.7000        26
  59.7500        22
  59.8000        26
  59.8500        26
  59.9000        25
  59.9500        21
  60.0000        29
  60.0500        24
  60.1000        21
  60.1500        21
  60.2000        23
  60.2500        31
  60.3000        29
  60.3500        27
  60.4000        18
  60.4500        31
  60.5000        29
  60.5500        24
  60.6000        27
  60.6500        25
  60.7000        22
  60.7500        26
  60.8000        18
  60.8500        17
  60.9000        24
  60.9500        27
  61.0000        36
  61.0500        29
  61.1000        28
  61.1500        31
  61.2000        34
  61.2500        26
  61.3000        29
  61.3500        23
  61.4000        28
  61.4500        28
  61.5000        28
  61.5500        23
  61.6000        30
  61.6500        31
  61.7000        23
  61.7500        26
  61.8000        28
  61.8500        15
  61.9000        34
  61.9500        27
  62.0000        29
  62.0500        34
  62.1000        25
  62.1500        22
  62.2000        21
  62.2500        22
  62.3000        28
  62.3500        20
  62.4000        26
  62.4500        27
  62.5000        28
  62.5500        24
  62.6000        18
  62.6500        25
  62.7000        25
  62.7500        22
  62.8000        27
  62.8500        35
  62.9000        25
  62.9500        31
  63.0000        39
  63.0500        35
  63.1000        27
  63.1500        32
  63.2000        25
  63.2500        33
  63.3000        24
  63.3500        25
  63.4000        36
  63.4500        28
  63.5000        27
  63.5500        22
  63.6000        22
  63.6500        21
  63.7000        28
  63.7500        24
  63.8000        36
  63.8500        15
  63.9000        37
  63.9500        30
  64.0000        10
  64.0500        28
  64.1000        25
  64.1500        17
  64.2000        13
  64.2500        25
  64.3000        23
  64.3500        28
  64.4000        26
  64.4500        22
  64.5000        32
  64.5500        29
  64.6000        28
  64.6500        19
  64.7000        20
  64.7500        22
  64.8000        21
  64.8500        20
  64.9000        22
  64.9500        28
  65.0000        24
  65.0500        23
  65.1000        25
  65.1500        24
  65.2000        24
  65.2500        35
  65.3000        33
  65.3500        19
  65.4000        38
  65.4500        37
  65.5000        22
  65.5500        24
  65.6000        22
  65.6500        25
  65.7000        21
  65.7500        28
  65.8000        18
  65.8500        21
  65.9000        33
  65.9500        20
  66.0000        24
  66.0500        27
  66.1000        23
  66.1500        31
  66.2000        22
  66.2500        28
  66.3000        33
  66.3500        24
  66.4000        29
  66.4500        29
  66.5000        33
  66.5500        36
  66.6000        23
  66.6500        22
  66.7000        29
  66.7500        34
  66.8000        22
  66.8500        26
  66.9000        30
  66.9500        24
  67.0000        26
  67.0500        26
  67.1000        24
  67.1500        24
  67.2000        35
  67.2500        25
  67.3000        27
  67.3500        37
  67.4000        28
  67.4500        19
  67.5000        22
  67.5500        28
  67.6000        35
  67.6500        19
  67.7000        28
  67.7500        25
  67.8000        24
  67.8500        23
  67.9000        22
  67.9500        28
  68.0000        26
  68.0500        21
  68.1000        19
  68.1500        29
  68.2000        26
  68.2500        25
  68.3000        24
  68.3500        25
  68.4000        27
  68.4500        25
  68.5000        21
  68.5500        28
  68.6000        33
  68.6500        24
  68.7000        33
  68.7500        16
  68.8000        25
  68.8500        23
  68.9000        21
  68.9500        27
  69.0000        28
  69.0500        26
  69.1000        25
  69.1500        23
  69.2000        30
  69.2500        22
  69.3000        40
  69.3500        23
  69.4000        31
  69.4500        35
  69.5000        19
  69.5500        28
  69.6000        15
  69.6500        28
  69.7000        23
  69.7500        22
  69.8000        27
  69.8500        34
  69.9000        25
  69.9500        22
  70.0000        20
  70.0500        22
  70.1000        27
  70.1500        21
  70.2000        23
  70.2500        22
  70.3000        32
  70.3500        24
  70.4000        25
  70.4500        26
  70.5000        39
  70.5500        28
  70.6000        25
  70.6500        26
  70.7000        26
  70.7500        30
  70.8000        31
  70.8500        27
  70.9000        26
  70.9500        25
  71.0000        29
  71.0500        28
  71.1000        37
  71.1500        19
  71.2000        28
  71.2500        35
  71.3000        27
  71.3500        26
  71.4000        33
  71.4500        33
  71.5000        23
  71.5500        37
  71.6000        24
  71.6500        34
  71.7000        23
  71.7500        26
  71.8000        22
  71.8500        38
  71.9000        27
  71.9500        31
  72.0000        26
  72.0500        31
  72.1000        26
  72.1500        23
  72.2000        26
  72.2500        27
  72.3000        28
  72.3500        30
  72.4000        17
  72.4500        25
  72.5000        29
  72.5500        43
  72.6000        24
  72.6500        32
  72.7000        37
  72.7500        24
  72.8000        27
  72.8500        35
  72.9000        25
  72.9500        28
  73.0000        27
  73.0500        28
  73.1000        30
  73.1500        25
  73.2000        36
  73.2500        35
  73.3000        30
  73.3500        22
  73.4000        31
  73.4500        30
  73.5000        29
  73.5500        22
  73.6000        27
  73.6500        37
  73.7000        39
  73.7500        31
  73.8000        37
  73.8500        28
  73.9000        35
  73.9500        39
  74.0000        20
  74.0500        35
  74.1000        26
  74.1500        32
  74.2000        39
  74.2500        42
  74.3000        38
  74.3500        27
  74.4000        45
  74.4500        42
  74.5000        35
  74.5500        41
  74.6000        39
  74.6500        59
  74.7000        66
  74.7500        61
  74.8000        72
  74.8500        78
  74.9000        85
  74.9500        84
  75.0000       109
  75.0500       148
  75.1000       166
  75.1500       159
  75.2000       182
  75.2500       220
  75.3000       249
  75.3500       232
  75.4000       250
  75.4500       242
  75.5000       228
  75.5500       233
  75.6000       207
  75.6500       211
  75.7000       188
  75.7500       150
  75.8000       111
  75.8500        97
  75.9000        81
  75.9500        77
  76.0000        63
  76.0500        73
  76.1000        50
  76.1500        49
  76.2000        56
  76.2500        29
  76.3000        45
  76.3500        32
  76.4000        36
  76.4500        37
  76.5000        31
  76.5500        30
  76.6000        41
  76.6500        41
  76.7000        25
  76.7500        30
  76.8000        31
  76.8500        36
  76.9000        28
  76.9500        31
  77.0000        28
  77.0500        21
  77.1000        33
  77.1500        31
  77.2000        29
  77.2500        36
  77.3000        29
  77.3500        32
  77.4000        25
  77.4500        25
  77.5000        38
  77.5500        36
  77.6000        26
  77.6500        31
  77.7000        27
  77.7500        24
  77.8000        25
  77.8500        19
  77.9000        30
  77.9500        38
  78.0000        31
  78.0500        35
  78.1000        31
  78.1500        22
  78.2000        34
  78.2500        26
  78.3000        25
  78.3500        36
  78.4000        26
  78.4500        31
  78.5000        32
  78.5500        24
  78.6000        31
  78.6500        22
  78.7000        22
  78.7500        25
  78.8000        25
  78.8500        32
  78.9000        35
  78.9500        27
  79.0000        33
  79.0500        29
  79.1000        18
  79.1500        28
  79.2000        36
  79.2500        25
  79.3000        23
  79.3500        28
  79.4000        21
  79.4500        30
  79.5000        33
  79.5500        28
  79.6000        22
  79.6500        29
  79.7000        27
  79.7500        32
  79.8000        27
  79.8500        35
  79.9000        46
  79.9500        24
  80.0000        24
  80.0500        27
  80.1000        27
  80.1500        26
  80.2000        23
  80.2500        31
  80.3000        30
  80.3500        32
  80.4000        35
  80.4500        29
  80.5000        32
  80.5500        19
  80.6000        27
  80.6500        33
  80.7000        24
  80.7500        38
  80.8000        32
  80.8500        30
  80.9000        26
  80.9500        27
  81.0000        26
  81.0500        23
  81.1000        35
  81.1500        26
  81.2000        25
  81.2500        27
  81.3000        29
  81.3500        20
  81.4000        26
  81.4500        44
  81.5000        34
  81.5500        30
  81.6000        22
  81.6500        23
  81.7000        32
  81.7500        33
  81.8000        38
  81.8500        23
  81.9000        28
  81.9500        29
  82.0000        28
  82.0500        25
  82.1000        26
  82.1500        23
  82.2000        29
  82.2500        22
  82.3000        26
  82.3500        31
  82.4000        21
  82.4500        31
  82.5000        26
  82.5500        24
  82.6000        33
  82.6500        31
  82.7000        21
  82.7500        31
  82.8000        31
  82.8500        22
  82.9000        31
  82.9500        26
  83.0000        27
  83.0500        25
  83.1000        31
  83.1500        29
  83.2000        32
  83.2500        24
  83.3000        21
  83.3500        29
  83.4000        22
  83.4500        20
  83.5000        34
  83.5500        29
  83.6000        26
  83.6500        34
  83.7000        27
  83.7500        31
  83.8000        19
  83.8500        33
  83.9000        20
  83.9500        36
  84.0000        37
  84.0500        25
  84.1000        34
  84.1500        28
  84.2000        22
  84.2500        23
  84.3000        31
  84.3500        34
  84.4000        26
  84.4500        31
  84.5000        25
  84.5500        29
  84.6000        23
  84.6500        35
  84.7000        28
  84.7500        36
  84.8000        24
  84.8500        24
  84.9000        37
  84.9500        29
  85.0000        25
  85.0500        29
  85.1000        27
  85.1500        25
  85.2000        31
  85.2500        18
  85.3000        17
  85.3500        17
  85.4000        23
  85.4500        27
  85.5000        26
  85.5500        27
  85.6000        21
  85.6500        35
  85.7000        36
  85.7500        22
  85.8000        38
  85.8500        25
  85.9000        28
  85.9500        39
  86.0000        33
  86.0500        35
  86.1000        29
  86.1500        28
  86.2000        26
  86.2500        37
  86.3000        27
  86.3500        26
  86.4000        23
  86.4500        26
  86.5000        24
  86.5500        35
  86.6000        29
  86.6500        31
  86.7000        22
  86.7500        32
  86.8000        31
  86.8500        24
  86.9000        22
  86.9500        27
  87.0000        30
  87.0500        35
  87.1000        27
  87.1500        25
  87.2000        41
  87.2500        33
  87.3000        24
  87.3500        29
  87.4000        34
  87.4500        27
  87.5000        32
  87.5500        32
  87.6000        27
  87.6500        35
  87.7000        34
  87.7500        39
  87.8000        34
  87.8500        20
  87.9000        34
  87.9500        27
  88.0000        28
  88.0500        28
  88.1000        24
  88.1500        24
  88.2000        34
  88.2500        26
  88.3000        33
  88.3500        31
  88.4000        30
  88.4500        28
  88.5000        25
  88.5500        30
  88.6000        30
  88.6500        31
  88.7000        48
  88.7500        42
  88.8000        23
  88.8500        25
  88.9000        24
  88.9500        27
  89.0000        29
  89.0500        29
  89.1000        27
  89.1500        31
  89.2000        17
  89.2500        29
  89.3000        35
  89.3500        32
  89.4000        33
  89.4500        38
  89.5000        28
  89.5500        32
  89.6000        24
  89.6500        26
  89.7000        28
  89.7500        29
  89.8000        28
  89.8500        41
  89.9000        28
  89.9500        39
  90.0000        19
  90.0500        41
  90.1000        31
  90.1500        46
  90.2000        43
  90.2500        41
  90.3000        34
  90.3500        39
  90.4000        39
  90.4500        39
  90.5000        45
  90.5500        46
  90.6000        51
  90.6500        44
  90.7000        62
  90.7500        73
  90.8000        74
  90.8500        80
  90.9000        97
  90.9500        86
  91.0000        87
  91.0500       114
  91.1000       108
  91.1500       119
  91.2000       135
  91.2500       131
  91.3000       166
  91.3500       157
  91.4000       181
  91.4500       187
  91.5000       208
  91.5500       173
  91.6000       219
  91.6500       219
  91.7000       190
  91.7500       198
  91.8000       185
  91.8500       188
  91.9000       194
  91.9500       163
  92.0000       138
  92.0500       125
  92.1000       111
  92.1500       128
  92.2000        93
  92.2500        86
  92.3000        92
  92.3500        75
  92.4000        64
  92.4500        62
  92.5000        55
  92.5500        45
  92.6000        62
  92.6500        50
  92.7000        46
  92.7500        48
  92.8000        33
  92.8500        47
  92.9000        38
  92.9500        50
  93.0000        35
  93.0500        29
  93.1000        42
  93.1500        41
  93.2000        36
  93.2500        40
  93.3000        26
  93.3500        32
  93.4000        48
  93.4500        32
  93.5000        36
  93.5500        37
  93.6000        32
  93.6500        30
  93.7000        27
  93.7500        28
  93.8000        29
  93.8500        32
  93.9000        36
  93.9500        36
  94.0000        30
  94.0500        29
  94.1000        32
  94.1500        31
  94.2000        36
  94.2500        28
  94.3000        43
  94.3500        32
  94.4000        40
  94.4500        37
  94.5000        37
  94.5500        26
  94.6000        38
  94.6500        40
  94.7000        25
  94.7500        28
  94.8000        28
  94.8500        34
  94.9000        34
  94.9500        26
  95.0000        34
  95.0500        38
  95.1000        28
  95.1500        36
  95.2000        31
  95.2500        37
  95.3000        24
  95.3500        27
  95.4000        36
  95.4500        32
  95.5000        23
  95.5500        38
  95.6000        28
  95.6500        34
  95.7000        29
  95.7500        28
  95.8000        29
  95.8500        35
  95.9000        45
  95.9500        30
  96.0000        34
  96.0500        30
  96.1000        38
  96.1500        42
  96.2000        40
  96.2500        50
  96.3000        41
  96.3500        45
  96.4000        56
  96.4500        55
  96.5000        63
  96.5500        62
  96.6000        45
  96.6500        57
  96.7000        58
  96.7500        67
  96.8000        81
  96.8500        76
  96.9000        84
  96.9500        77
  97.0000        98
  97.0500        94
  97.1000        84
  97.1500        89
  97.2000        80
  97.2500        68
  97.3000        61
  97.3500        66
  97.4000        59
  97.4500        50
  97.5000        60
  97.5500        56
  97.6000        37
  97.6500        38
  97.7000        48
  97.7500        39
  97.8000        26
  97.8500        39
  97.9000        33
  97.9500        40
  98.0000        40
  98.0500        35
  98.1000        32
  98.1500        28
  98.2000        25
  98.2500        38
  98.3000        29
  98.3500        30
  98.4000        34
  98.4500        29
  98.5000        34
  98.5500        23
  98.6000        27
  98.6500        36
  98.7000        33
  98.7500        35
  98.8000        36
  98.8500        33
  98.9000        32
  98.9500        30
  99.0000        24
  99.0500        35
  99.1000        25
  99.1500        25
  99.2000        26
  99.2500        32
  99.3000        33
  99.3500        23
  99.4000        27
  99.4500        30
  99.5000        37
  99.5500        24
  99.6000        27
  99.6500        29
  99.7000        27
  99.7500        27
  99.8000        28
  99.8500        30
  99.9000        28
  99.9500        27
 100.0000        28
 100.0500        21
 100.1000        36
 100.1500        30
 100.2000        37
 100.2500        35
 100.3000        32
 100.3500        27
 100.4000        32
 100.4500        42
 100.5000        19
 100.5500        23
 100.6000        28
 100.6500        33
 100.7000        43
 100.7500        21
 100.8000        31
 100.8500        26
 100.9000        31
 100.9500        25
 101.0000        23
 101.0500        30
 101.1000        35
 101.1500        26
 101.2000        23
 101.2500        26
 101.3000        28
 101.3500        21
 101.4000        36
 101.4500        27
 101.5000        26
 101.5500        24
 101.6000        36
 101.6500        26
 101.7000        32
 101.7500        31
 101.8000        31
 101.8500        25
 101.9000        32
 101.9500        29
 102.0000        27
 102.0500        25
 102.1000        37
 102.1500        26
 102.2000        22
 102.2500        28
 102.3000        37
 102.3500        30
 102.4000        28
 102.4500        22
 102.5000        36
 102.5500        23
 102.6000        29
 102.6500        29
 102.7000        24
 102.7500        23
 102.8000        24
 102.8500        27
 102.9000        21
 102.9500        18
 103.0000        21
 103.0500        23
 103.1000        35
 103.1500        31
 103.2000        26
 103.2500        18
 103.3000        23
 103.3500        27
 103.4000        24
 103.4500        27
 103.5000        34
 103.5500        34
 103.6000        32
 103.6500        33
 103.7000        30
 103.7500        29
 103.8000        31
 103.8500        32
 103.9000        25
 103.9500        25
 104.0000        32
 104.0500        22
 104.1000        26
 104.1500        24
 104.2000        26
 104.2500        20
 104.3000        30
 104.3500        31
 104.4000        24
 104.4500        25
 104.5000        27
 104.5500        35
 104.6000        35
 104.6500        36
 104.7000        25
 104.7500        30
 104.8000        29
 104.8500        31
 104.9000        23
 104.9500        21
 105.0000        30
 105.0500        27
 105.1000        25
 105.1500        29
 105.2000        26
 105.2500        33
 105.3000        39
 105.3500        31
 105.4000        34
 105.4500        33
 105.5000        24
 105.5500        32
 105.6000        16
 105.6500        28
 105.7000        28
 105.7500        29
 105.8000        39
 105.8500        28
 105.9000        30
 105.9500        34
 106.0000        43
 106.0500        20
 106.1000        30
 106.1500        17
 106.2000        36
 106.2500        26
 106.3000        27
 106.3500        38
 106.4000        29
 106.4500        32
 106.5000        40
 106.5500        37
 106.6000        24
 106.6500        26
 106.7000        28
 106.7500        28
 106.8000        26
 106.8500        35
 106.9000        22
 106.9500        33
 107.0000        32
 107.0500        23
 107.1000        23
 107.1500        29
 107.2000        22
 107.2500        38
 107.3000        29
 107.3500        41
 107.4000        30
 107.4500        23
 107.5000        37
 107.5500        29
 107.6000        33
 107.6500        28
 107.7000        38
 107.7500        29
 107.8000        24
 107.8500        23
 107.9000        27
 107.9500        30
 108.0000        29
 108.0500        34
 108.1000        28
 108.1500        34
 108.2000        30
 108.2500        33
 108.3000        35
 108.3500        34
 108.4000        25
 108.4500        33
 108.5000        30
 108.5500        39
 108.6000        23
 108.6500        28
 108.7000        34
 108.7500        22
 108.8000        34
 108.8500        24
 108.9000        26
 108.9500        26
 109.0000        33
 109.0500        24
 109.1000        23
 109.1500        35
 109.2000        28
 109.2500        31
 109.3000        25
 109.3500        27
 109.4000        31
 109.4500        30
 109.5000        25
 109.5500        34
 109.6000        26
 109.6500        21
 109.7000        27
 109.7500        44
 109.8000        27
 109.8500        28
 109.9000        29
 109.9500        27
 110.0000        38
