  10.0000        52
  10.0500        54
  10.1000        67
  10.1500        55
  10.2000        56
  10.2500        49
  10.3000        54
  10.3500        32
  10.4000        27
  10.4500        32
  10.5000        23
  10.5500        20
  10.6000        19
  10.6500        29
  10.7000        24
  10.7500        21
  10.8000        21
  10.8500        29
  10.9000        12
  10.9500        26
  11.0000        17
  11.0500        23
  11.1000        17
  11.1500        19
  11.2000        20
  11.2500        17
  11.3000        14
  11.3500        23
  11.4000        17
  11.4500        20
  11.5000        26
  11.5500        24
  11.6000        18
  11.6500        27
  11.7000        21
  11.7500        18
  11.8000        28
  11.8500        24
  11.9000        19
  11.9500        27
  12.0000        19
  12.0500        20
  12.1000        27
  12.1500        19
  12.2000        21
  12.2500        22
  12.3000        13
  12.3500        18
  12.4000        17
  12.4500        21
  12.5000        23
  12.5500        27
  12.6000        17
  12.6500        13
  12.7000        20
  12.7500        19
  12.8000        16
  12.8500        18
  12.9000        21
  12.9500        23
  13.0000        14
  13.0500        10
  13.1000        18
  13.1500        28
  13.2000        22
  13.2500        16
  13.3000        12
  13.3500        19
  13.4000        17
  13.4500        15
  13.5000        18
  13.5500        23
  13.6000        23
  13.6500        20
  13.7000        19
  13.7500        33
  13.8000        29
  13.8500        28
  13.9000        21
  13.9500        22
  14.0000        23
  14.0500        19
  14.1000        28
  14.1500        30
  14.2000        16
  14.2500        32
  14.3000        34
  14.3500        42
  14.4000        45
  14.4500        36
  14.5000        30
  14.5500        26
  14.6000        12
  14.6500        15
  14.7000        15
  14.7500        15
  14.8000        11
  14.8500        11
  14.9000        14
  14.9500        16
  15.0000        22
  15.0500        19
  15.1000        19
  15.1500        22
  15.2000        17
  15.2500        16
  15.3000        15
  15.3500        17
  15.4000        17
  15.4500        16
  15.5000        18
  15.5500        23
  15.6000        21
  15.6500        18
  15.7000        19
  15.7500        16
  15.8000        15
  15.8500        16
  15.9000        23
  15.9500        21
  16.0000        20
  16.0500        17
  16.1000        21
  16.1500        16
  16.2000        22
  16.2500        13
  16.3000        14
  16.3500        15
  16.4000        20
  16.4500        13
  16.5000        13
  16.5500        12
  16.6000        16
  16.6500         9
  16.7000        12
  16.7500        16
  16.8000        19
  16.8500        15
  16.9000        13
  16.9500        22
  17.0000        19
  17.0500        14
  17.1000        20
  17.1500        19
  17.2000        19
  17.2500        18
  17.3000        10
  17.3500        18
  17.4000        22
  17.4500        13
  17.5000        18
  17.5500        17
  17.6000        15
  17.6500        24
  17.7000        13
  17.7500        18
  17.8000        18
  17.8500        14
  17.9000        11
  17.9500        16
  18.0000        15
  18.0500        14
  18.1000        20
  18.1500        19
  18.2000        14
  18.2500        12
  18.3000        16
  18.3500        10
  18.4000        19
  18.4500        20
  18.5000         9
  18.5500        15
  18.6000         9
  18.6500        15
  18.7000        13
  18.7500         7
  18.8000        16
  18.8500        12
  18.9000        10
  18.9500        18
  19.0000        27
  19.0500        13
  19.1000        18
  19.1500        18
  19.2000        14
  19.2500        14
  19.3000        14
  19.3500        14
  19.4000        14
  19.4500        15
  19.5000        17
  19.5500        15
  19.6000        16
  19.6500        23
  19.7000        21
  19.7500        21
  19.8000        16
  19.8500        15
  19.9000        24
  19.9500        24
  20.0000        15
  20.0500        29
  20.1000        20
  20.1500        15
  20.2000        14
  20.2500        21
  20.3000        12
  20.3500        22
  20.4000        12
  20.4500        10
  20.5000        31
  20.5500        15
  20.6000        25
  20.6500        20
  20.7000        20
  20.7500        24
  20.8000        13
  20.8500        19
  20.9000        18
  20.9500        12
  21.0000        17
  21.0500        24
  21.1000        14
  21.1500        22
  21.2000        19
  21.2500        18
  21.3000        26
  21.3500         9
  21.4000        15
  21.4500        23
  21.5000        18
  21.5500        24
  21.6000        14
  21.6500        15
  21.7000        21
  21.7500        17
  21.8000        19
  21.8500        14
  21.9000        21
  21.9500        15
  22.0000         8
  22.0500        17
  22.1000        24
  22.1500        16
  22.2000        30
  22.2500        14
  22.3000        17
  22.3500        22
  22.4000        12
  22.4500        22
  22.5000        17
  22.5500        13
  22.6000        23
  22.6500        16
  22.7000        15
  22.7500        29
  22.8000        26
  22.8500        29
  22.9000        23
  22.9500        30
  23.0000        23
  23.0500        36
  23.1000        26
  23.1500        24
  23.2000        19
  23.2500        41
  23.3000        34
  23.3500        33
  23.4000        31
  23.4500        30
  23.5000        19
  23.5500        20
  23.6000        31
  23.6500        27
  23.7000        17
  23.7500        25
  23.8000        17
  23.8500        26
  23.9000        26
  23.9500        37
  24.0000        25
  24.0500        21
  24.1000        17
  24.1500        30
  24.2000        24
  24.2500        17
  24.3000        19
  24.3500        19
  24.4000        28
  24.4500        25
  24.5000        27
  24.5500        16
  24.6000        33
  24.6500        33
  24.7000        35
  24.7500        30
  24.8000        29
  24.8500        39
  24.9000        21
  24.9500        22
  25.0000        21
  25.0500        26
  25.1000        28
  25.1500        24
  25.2000        23
  25.2500        19
  25.3000        27
  25.3500        24
  25.4000        29
  25.4500        19
  25.5000        22
  25.5500        21
  25.6000        20
  25.6500        19
  25.7000        19
  25.7500        23
  25.8000        17
  25.8500        24
  25.9000        24
  25.9500        20
  26.0000        31
  26.0500        14
  26.1000        22
  26.1500        24
  26.2000        17
  26.2500        24
  26.3000        26
  26.3500        20
  26.4000        27
  26.4500        24
  26.5000        31
  26.5500        28
  26.6000        35
  26.6500        25
  26.7000        23
  26.7500        24
  26.8000        25
  26.8500        26
  26.9000        34
  26.9500        28
  27.0000        38
  27.0500        47
  27.1000        26
  27.1500        44
  27.2000        31
  27.2500        34
  27.3000        30
  27.3500        17
  27.4000        47
  27.4500        30
  27.5000        30
  27.5500        34
  27.6000        37
  27.6500        29
  27.7000        24
  27.7500        29
  27.8000        33
  27.8500        24
  27.9000        38
  27.9500        27
  28.0000        44
  28.0500        44
  28.1000        39
  28.1500        39
  28.2000        44
  28.2500        52
  28.3000        60
  28.3500        38
  28.4000        61
  28.4500        45
  28.5000        48
  28.5500        35
  28.6000        19
  28.6500        30
  28.7000        19
  28.7500        17
  28.8000        25
  28.8500        20
  28.9000        23
  28.9500        24
  29.0000        17
  29.0500        36
  29.1000        27
  29.1500        23
  29.2000        31
  29.2500        22
  29.3000        20
  29.3500        44
  29.4000        16
  29.4500        24
  29.5000        35
  29.5500        23
  29.6000        23
  29.6500        23
  29.7000        25
  29.7500        25
  29.8000        27
  29.8500        31
  29.9000        22
  29.9500        24
  30.0000        19
  30.0500        32
  30.1000        43
  30.1500        25
  30.2000        47
  30.2500        34
  30.3000        50
  30.3500        51
  30.4000        67
  30.4500        59
  30.5000        67
  30.5500        54
  30.6000        61
  30.6500        57
  30.7000        59
  30.7500        67
  30.8000        68
  30.8500        65
  30.9000        57
  30.9500        73
  31.0000        89
  31.0500       118
  31.1000       208
  31.1500       435
  31.2000      1017
  31.2500      1652
  31.3000      2208
  31.3500      2018
  31.4000      1453
  31.4500       784
  31.5000       336
  31.5500       154
  31.6000        89
  31.6500        55
  31.7000        48
  31.7500        66
  31.8000        50
  31.8500        43
  31.9000        50
  31.9500        54
  32.0000        38
  32.0500        41
  32.1000        34
  32.1500        37
  32.2000        35
  32.2500        26
  32.3000        42
  32.3500        32
  32.4000        30
  32.4500        28
  32.5000        26
  32.5500        30
  32.6000        28
  32.6500        34
  32.7000        29
  32.7500        38
  32.8000        26
  32.8500        31
  32.9000        26
  32.9500        21
  33.0000        17
  33.0500        29
  33.1000        20
  33.1500        21
  33.2000        29
  33.2500        33
  33.3000        21
  33.3500        27
  33.4000        26
  33.4500        24
  33.5000        28
  33.5500        26
  33.6000        23
  33.6500        28
  33.7000        31
  33.7500        26
  33.8000        25
  33.8500        25
  33.9000        31
  33.9500        27
  34.0000        26
  34.0500        34
  34.1000        31
  34.1500        32
  34.2000        31
  34.2500        35
  34.3000        31
  34.3500        27
  34.4000        19
  34.4500        25
  34.5000        34
  34.5500        23
  34.6000        30
  34.6500        19
  34.7000        29
  34.7500        16
  34.8000        27
  34.8500        23
  34.9000        27
  34.9500        23
  35.0000        27
  35.0500        28
  35.1000        24
  35.1500        15
  35.2000        23
  35.2500        33
  35.3000        25
  35.3500        19
  35.4000        23
  35.4500        28
  35.5000        22
  35.5500        28
  35.6000        35
  35.6500        23
  35.7000        27
  35.7500        41
  35.8000        30
  35.8500        33
  35.9000        35
  35.9500        32
  36.0000        52
  36.0500        75
  36.1000       134
  36.1500       274
  36.2000       537
  36.2500       762
  36.3000       958
  36.3500       866
  36.4000       621
  36.4500       397
  36.5000       174
  36.5500        97
  36.6000        55
  36.6500        42
  36.7000        25
  36.7500        20
  36.8000        23
  36.8500        18
  36.9000        26
  36.9500        21
  37.0000        23
  37.0500        18
  37.1000        13
  37.1500        20
  37.2000        32
  37.2500        21
  37.3000        16
  37.3500        20
  37.4000        15
  37.4500        14
  37.5000        25
  37.5500        23
  37.6000        15
  37.6500        23
  37.7000        16
  37.7500        23
  37.8000        18
  37.8500        20
  37.9000        18
  37.9500        12
  38.0000        13
  38.0500        19
  38.1000        19
  38.1500        23
  38.2000        22
  38.2500        11
  38.3000        18
  38.3500        24
  38.4000        13
  38.4500        21
  38.5000        17
  38.5500        13
  38.6000        11
  38.6500        21
  38.7000        14
  38.7500        16
  38.8000        18
  38.8500        21
  38.9000        12
  38.9500        13
  39.0000        25
  39.0500        21
  39.1000        20
  39.1500        22
  39.2000        13
  39.2500        15
  39.3000        19
  39.3500        16
  39.4000        17
  39.4500        15
  39.5000        20
  39.5500        10
  39.6000        15
  39.6500        12
  39.7000        22
  39.7500        19
  39.8000        20
  39.8500        14
  39.9000        17
  39.9500        16
  40.0000         9
  40.0500        12
  40.1000        11
  40.1500        20
  40.2000        15
  40.2500        19
  40.3000        23
  40.3500        17
  40.4000        14
  40.4500        16
  40.5000        17
  40.5500        21
  40.6000        18
  40.6500        19
  40.7000        15
  40.7500        11
  40.8000        20
  40.8500        12
  40.9000        20
  40.9500         9
  41.0000        15
  41.0500        16
  41.1000         8
  41.1500        12
  41.2000        16
  41.2500        20
  41.3000        18
  41.3500        18
  41.4000        15
  41.4500        18
  41.5000        14
  41.5500        18
  41.6000        14
  41.6500        20
  41.7000        15
  41.7500         9
  41.8000        17
  41.8500        22
  41.9000        16
  41.9500        16
  42.0000        20
  42.0500        16
  42.1000        18
  42.1500        13
  42.2000        24
  42.2500        25
  42.3000        21
  42.3500        18
  42.4000        14
  42.4500        22
  42.5000        22
  42.5500        28
  42.6000        20
  42.6500        25
  42.7000        16
  42.7500        23
  42.8000        25
  42.8500        17
  42.9000        12
  42.9500        18
  43.0000        15
  43.0500        18
  43.1000        21
  43.1500        17
  43.2000        18
  43.2500        14
  43.3000        25
  43.3500        14
  43.4000        10
  43.4500        11
  43.5000        18
  43.5500        13
  43.6000        14
  43.6500        30
  43.7000        11
  43.7500         9
  43.8000        16
  43.8500        15
  43.9000        13
  43.9500        17
  44.0000        16
  44.0500        12
  44.1000        13
  44.1500        10
  44.2000        20
  44.2500        22
  44.3000        20
  44.3500        15
  44.4000        17
  44.4500        15
  44.5000        16
  44.5500        19
  44.6000        24
  44.6500        18
  44.7000        15
  44.7500        20
  44.8000        14
  44.8500         9
  44.9000        15
  44.9500        20
  45.0000        17
  45.0500        16
  45.1000        21
  45.1500        21
  45.2000        11
  45.2500        20
  45.3000        21
  45.3500        23
  45.4000        22
  45.4500        16
  45.5000        23
  45.5500        14
  45.6000        21
  45.6500        14
  45.7000        22
  45.7500        12
  45.8000        13
  45.8500        16
  45.9000        11
  45.9500        17
  46.0000        17
  46.0500        14
  46.1000        19
  46.1500        19
  46.2000        17
  46.2500        17
  46.3000        17
  46.3500        22
  46.4000        15
  46.4500        20
  46.5000        19
  46.5500        18
  46.6000        17
  46.6500        18
  46.7000        16
  46.7500        18
  46.8000        15
  46.8500        15
  46.9000        18
  46.9500        22
  47.0000        18
  47.0500        21
  47.1000         6
  47.1500        18
  47.2000        15
  47.2500        17
  47.3000        22
  47.3500        28
  47.4000        22
  47.4500        11
  47.5000        19
  47.5500        18
  47.6000        21
  47.6500        11
  47.7000        14
  47.7500        21
  47.8000        23
  47.8500        12
  47.9000        15
  47.9500        18
  48.0000        12
  48.0500        18
  48.1000        17
  48.1500        16
  48.2000        16
  48.2500        11
  48.3000        20
  48.3500        19
  48.4000        18
  48.4500        24
  48.5000        17
  48.5500        23
  48.6000        18
  48.6500        12
  48.7000        13
  48.7500        16
  48.8000        18
  48.8500        22
  48.9000        17
  48.9500        21
  49.0000        14
  49.0500        14
  49.1000        27
  49.1500        29
  49.2000        12
  49.2500        18
  49.3000        21
  49.3500        21
  49.4000        15
  49.4500        15
  49.5000        18
  49.5500        21
  49.6000        16
  49.6500        10
  49.7000        11
  49.7500        21
  49.8000        15
  49.8500        18
  49.9000        13
  49.9500        18
  50.0000        11
  50.0500        19
  50.1000        22
  50.1500        18
  50.2000        22
  50.2500        17
  50.3000        10
  50.3500        14
  50.4000        20
  50.4500        14
  50.5000        22
  50.5500        21
  50.6000        22
  50.6500        25
  50.7000        19
  50.7500        20
  50.8000        23
  50.8500        20
  50.9000        17
  50.9500        19
  51.0000        13
  51.0500        28
  51.1000        31
  51.1500        15
  51.2000        22
  51.2500        19
  51.3000        12
  51.3500        24
  51.4000        19
  51.4500        27
  51.5000        23
  51.5500        19
  51.6000        15
  51.6500        23
  51.7000        19
  51.7500        20
  51.8000        20
  51.8500        23
  51.9000        23
  51.9500        23
  52.0000        37
  52.0500        47
  52.1000       100
  52.1500       174
  52.2000       285
  52.2500       373
  52.3000       393
  52.3500       325
  52.4000       251
  52.4500       163
  52.5000       111
  52.5500        61
  52.6000        41
  52.6500        31
  52.7000        31
  52.7500        18
  52.8000        30
  52.8500        18
  52.9000        16
  52.9500        28
  53.0000        25
  53.0500        23
  53.1000        16
  53.1500        25
  53.2000        12
  53.2500        27
  53.3000        15
  53.3500        15
  53.4000        21
  53.4500        20
  53.5000        25
  53.5500        23
  53.6000        17
  53.6500        14
  53.7000        24
  53.7500        19
  53.8000        17
  53.8500        25
  53.9000        35
  53.9500        17
  54.0000        21
  54.0500        22
  54.1000        18
  54.1500        21
  54.2000        24
  54.2500        26
  54.3000        22
  54.3500        18
  54.4000        13
  54.4500        13
  54.5000        17
  54.5500        24
  54.6000        14
  54.6500        21
  54.7000        13
  54.7500        22
  54.8000        19
  54.8500        16
  54.9000        20
  54.9500        14
  55.0000        23
  55.0500        23
  55.1000        33
  55.1500        21
  55.2000        28
  55.2500        29
  55.3000        24
  55.3500        28
  55.4000        12
  55.4500        24
  55.5000        19
  55.5500        17
  55.6000        15
  55.6500        21
  55.7000        21
  55.7500        21
  55.8000        24
  55.8500        22
  55.9000        11
  55.9500        27
  56.0000        21
  56.0500        23
  56.1000        25
  56.1500        24
  56.2000        16
  56.2500        18
  56.3000        19
  56.3500        20
  56.4000        15
  56.4500        19
  56.5000        20
  56.5500        20
  56.6000        18
  56.6500        20
  56.7000        24
  56.7500        23
  56.8000        25
  56.8500        16
  56.9000        26
  56.9500        17
  57.0000        18
  57.0500        22
  57.1000        16
  57.1500        25
  57.2000        12
  57.2500        17
  57.3000        21
  57.3500        24
  57.4000        17
  57.4500        24
  57.5000        14
  57.5500        16
  57.6000        17
  57.6500        11
  57.7000        22
  57.7500        13
  57.8000        20
  57.8500        11
  57.9000        24
  57.9500        19
  58.0000        23
  58.0500        24
  58.1000        18
  58.1500        19
  58.2000        19
  58.2500        11
  58.3000        18
  58.3500        22
  58.4000        22
  58.4500        23
  58.5000        19
  58.5500        20
  58.6000        34
  58.6500        17
  58.7000        21
  58.7500        22
  58.8000        19
  58.8500        19
  58.9000        18
  58.9500        32
  59.0000        27
  59.0500        20
  59.1000        15
  59.1500        23
  59.2000        24
  59.2500        28
  59.3000        15
  59.3500        19
  59.4000        18
  59.4500        20
  59.5000         8
  59.5500        23
  59.6000        17
  59.6500        21
  59.7000        22
  59.7500        19
  59.8000        24
  59.8500        25
  59.9000        23
  59.9500        14
  60.0000        25
  60.0500        20
  60.1000        22
  60.1500        22
  60.2000         9
  60.2500        18
  60.3000        12
  60.3500        14
  60.4000        22
  60.4500        19
  60.5000        22
  60.5500        17
  60.6000        23
  60.6500        20
  60.7000        22
  60.7500        13
  60.8000        18
  60.8500        25
  60.9000        22
  60.9500        27
  61.0000        15
  61.0500        27
  61.1000        31
  61.1500        29
  61.2000        22
  61.2500        22
  61.3000        26
  61.3500        20
  61.4000        21
  61.4500        26
  61.5000        27
  61.5500        20
  61.6000        36
  61.6500        24
  61.7000        28
  61.7500        28
  61.8000        37
  61.8500        41
  61.9000        49
  61.9500        68
  62.0000       138
  62.0500       251
  62.1000       384
  62.1500       462
  62.2000       515
  62.2500       400
  62.3000       343
  62.3500       268
  62.4000       188
  62.4500       140
  62.5000        69
  62.5500        49
  62.6000        35
  62.6500        38
  62.7000        24
  62.7500        21
  62.8000        22
  62.8500        22
  62.9000        21
  62.9500        19
  63.0000        20
  63.0500        23
  63.1000        26
  63.1500        20
  63.2000        24
  63.2500        32
  63.3000        27
  63.3500        17
  63.4000        22
  63.4500        20
  63.5000        25
  63.5500        19
  63.6000        20
  63.6500        17
  63.7000        15
  63.7500        19
  63.8000        24
  63.8500        24
  63.9000        22
  63.9500        27
  64.0000        24
  64.0500        21
  64.1000        33
  64.1500        23
  64.2000        12
  64.2500        22
  64.3000        26
  64.3500        23
  64.4000        14
  64.4500        18
  64.5000        23
  64.5500        28
  64.6000        13
  64.6500        15
  64.7000        21
  64.7500        11
  64.8000        15
  64.8500        21
  64.9000        21
  64.9500        23
  65.0000        31
  65.0500        34
  65.1000        45
  65.1500        75
  65.2000       134
  65.2500       166
  65.3000       166
  65.3500       122
  65.4000        89
  65.4500        98
  65.5000        74
  65.5500        58
  65.6000        37
  65.6500        31
  65.7000        16
  65.7500        21
  65.8000        31
  65.8500        14
  65.9000        18
  65.9500        17
  66.0000        24
  66.0500        14
  66.1000        17
  66.1500        23
  66.2000        22
  66.2500        19
  66.3000        11
  66.3500        17
  66.4000        20
  66.4500        16
  66.5000        14
  66.5500        12
  66.6000        17
  66.6500        16
  66.7000        17
  66.7500        21
  66.8000        27
  66.8500        16
  66.9000        23
  66.9500         8
  67.0000        23
  67.0500        23
  67.1000        12
  67.1500         9
  67.2000        21
  67.2500        19
  67.3000        16
  67.3500        22
  67.4000        16
  67.4500        10
  67.5000        16
  67.5500        25
  67.6000        19
  67.6500        16
  67.7000         9
  67.7500        15
  67.8000        13
  67.8500        15
  67.9000        11
  67.9500        28
  68.0000        12
  68.0500         7
  68.1000        20
  68.1500        17
  68.2000        17
  68.2500        10
  68.3000        14
  68.3500        11
  68.4000        14
  68.4500        16
  68.5000        17
  68.5500        15
  68.6000        19
  68.6500        13
  68.7000        12
  68.7500        12
  68.8000        10
  68.8500        16
  68.9000        14
  68.9500        15
  69.0000        26
  69.0500        15
  69.1000        16
  69.1500        18
  69.2000        17
  69.2500        16
  69.3000        18
  69.3500         9
  69.4000        12
  69.4500        20
  69.5000        13
  69.5500        19
  69.6000        20
  69.6500        19
  69.7000        20
  69.7500        16
  69.8000        11
  69.8500        14
  69.9000        21
  69.9500        13
  70.0000        13
  70.0500        21
  70.1000        13
  70.1500         7
  70.2000        14
  70.2500        13
  70.3000        18
  70.3500        16
  70.4000        12
  70.4500        16
  70.5000        17
  70.5500        16
  70.6000        13
  70.6500        15
  70.7000        19
  70.7500        20
  70.8000        15
  70.8500        21
  70.9000        13
  70.9500        15
  71.0000        13
  71.0500        12
  71.1000        23
  71.1500        14
  71.2000        11
  71.2500        14
  71.3000        13
  71.3500        13
  71.4000        18
  71.4500        19
  71.5000        17
  71.5500        15
  71.6000        16
  71.6500        12
  71.7000        13
  71.7500        17
  71.8000        17
  71.8500         9
  71.9000        14
  71.9500        14
  72.0000        14
  72.0500        19
  72.1000        18
  72.1500        13
  72.2000        17
  72.2500        17
  72.3000        14
  72.3500        19
  72.4000         7
  72.4500        15
  72.5000        17
  72.5500        20
  72.6000        28
  72.6500        16
  72.7000        20
  72.7500        14
  72.8000         8
  72.8500        17
  72.9000        17
  72.9500        16
  73.0000         7
  73.0500        16
  73.1000        12
  73.1500        19
  73.2000        12
  73.2500        18
  73.3000        17
  73.3500        18
  73.4000        17
  73.4500        13
  73.5000        14
  73.5500        12
  73.6000        11
  73.6500        10
  73.7000        14
  73.7500        17
  73.8000        14
  73.8500         7
  73.9000        16
  73.9500        13
  74.0000        15
  74.0500        17
  74.1000        13
  74.1500        16
  74.2000        15
  74.2500        25
  74.3000        17
  74.3500        14
  74.4000        18
  74.4500        14
  74.5000        16
  74.5500        21
  74.6000        18
  74.6500        18
  74.7000        12
  74.7500        16
  74.8000        15
  74.8500        14
  74.9000        13
  74.9500        16
  75.0000        14
  75.0500        19
  75.1000        11
  75.1500        22
  75.2000        19
  75.2500        10
  75.3000        11
  75.3500        12
  75.4000        12
  75.4500        12
  75.5000         7
  75.5500        11
  75.6000        17
  75.6500        16
  75.7000        17
  75.7500        14
  75.8000        19
  75.8500        20
  75.9000        15
  75.9500        18
  76.0000        18
  76.0500        16
  76.1000        15
  76.1500        20
  76.2000        14
  76.2500        14
  76.3000         8
  76.3500         8
  76.4000        13
  76.4500        15
  76.5000        23
  76.5500        16
  76.6000        18
  76.6500        14
  76.7000        13
  76.7500        22
  76.8000        27
  76.8500        22
  76.9000        33
  76.9500        52
  77.0000        49
  77.0500        67
  77.1000        52
  77.1500        39
  77.2000        44
  77.2500        40
  77.3000        34
  77.3500        29
  77.4000        15
  77.4500        17
  77.5000        18
  77.5500        20
  77.6000        20
  77.6500        14
  77.7000         7
  77.7500        19
  77.8000        14
  77.8500        12
  77.9000        13
  77.9500        13
  78.0000        11
  78.0500        15
  78.1000        11
  78.1500        10
  78.2000        15
  78.2500        14
  78.3000        11
  78.3500        14
  78.4000        13
  78.4500        11
  78.5000        14
  78.5500        14
  78.6000        10
  78.6500        20
  78.7000        11
  78.7500        17
  78.8000         4
  78.8500        15
  78.9000        19
  78.9500        10
  79.0000        16
  79.0500        12
  79.1000        17
  79.1500        12
  79.2000        11
  79.2500         6
  79.3000        18
  79.3500        11
  79.4000        15
  79.4500        16
  79.5000        17
  79.5500        10
  79.6000        15
  79.6500        16
  79.7000        22
  79.7500        16
  79.8000        10
  79.8500        11
  79.9000        19
  79.9500        12
  80.0000        16
  80.0500        16
  80.1000        14
  80.1500        21
  80.2000        17
  80.2500        15
  80.3000        17
  80.3500         9
  80.4000        14
  80.4500        13
  80.5000        10
  80.5500        15
  80.6000        14
  80.6500         9
  80.7000        17
  80.7500        14
  80.8000        12
  80.8500        10
  80.9000        17
  80.9500        23
  81.0000        11
  81.0500         6
  81.1000        17
  81.1500        12
  81.2000        21
  81.2500        15
  81.3000        13
  81.3500        19
  81.4000        16
  81.4500        15
  81.5000        16
  81.5500         9
  81.6000        11
  81.6500        14
  81.7000        21
  81.7500        12
  81.8000        16
  81.8500        11
  81.9000        22
  81.9500        15
  82.0000        13
  82.0500        14
  82.1000        18
  82.1500        13
  82.2000        17
  82.2500        22
  82.3000        17
  82.3500        14
  82.4000        14
  82.4500        12
  82.5000        13
  82.5500        16
  82.6000        20
  82.6500        20
  82.7000        19
  82.7500        22
  82.8000        10
  82.8500        22
  82.9000        17
  82.9500        12
  83.0000        20
  83.0500        20
  83.1000        15
  83.1500        23
  83.2000        16
  83.2500         9
  83.3000        16
  83.3500        13
  83.4000         8
  83.4500        14
  83.5000        19
  83.5500        17
  83.6000         8
  83.6500        24
  83.7000        14
  83.7500        15
  83.8000        17
  83.8500        19
  83.9000        15
  83.9500        10
  84.0000        17
  84.0500        12
  84.1000        16
  84.1500        15
  84.2000         9
  84.2500        16
  84.3000        16
  84.3500        24
  84.4000        19
  84.4500        17
  84.5000         5
  84.5500         9
  84.6000        18
  84.6500        13
  84.7000        15
  84.7500        20
  84.8000        26
  84.8500        20
  84.9000        27
  84.9500        16
  85.0000        25
  85.0500        19
  85.1000        30
  85.1500        25
  85.2000        36
  85.2500        26
  85.3000        63
  85.3500        85
  85.4000       123
  85.4500       113
  85.5000        93
  85.5500        80
  85.6000        78
  85.6500        69
  85.7000        82
  85.7500        57
  85.8000        53
  85.8500        36
  85.9000        32
  85.9500        29
  86.0000        34
  86.0500        16
  86.1000        17
  86.1500        21
  86.2000        17
  86.2500        12
  86.3000        16
  86.3500        14
  86.4000        14
  86.4500        16
  86.5000        19
  86.5500        23
  86.6000         9
  86.6500        11
  86.7000        19
  86.7500        19
  86.8000        28
  86.8500        28
  86.9000        20
  86.9500        20
  87.0000        26
  87.0500        10
  87.1000        24
  87.1500        17
  87.2000        15
  87.2500        13
  87.3000        15
  87.3500        22
  87.4000        20
  87.4500        18
  87.5000        15
  87.5500        23
  87.6000        25
  87.6500        17
  87.7000        21
  87.7500        20
  87.8000        21
  87.8500        25
  87.9000        22
  87.9500        35
  88.0000        24
  88.0500        44
  88.1000        52
  88.1500        97
  88.2000        74
  88.2500       103
  88.3000        78
  88.3500        72
  88.4000        53
  88.4500        51
  88.5000        53
  88.5500        69
  88.6000        50
  88.6500        36
  88.7000        30
  88.7500        19
  88.8000        21
  88.8500        20
  88.9000        16
  88.9500        23
  89.0000        18
  89.0500        19
  89.1000        24
  89.1500        10
  89.2000        18
  89.2500        17
  89.3000        23
  89.3500        23
  89.4000        15
  89.4500        14
  89.5000        19
  89.5500        23
  89.6000        12
  89.6500        19
  89.7000        18
  89.7500        17
  89.8000        19
  89.8500        16
  89.9000        26
  89.9500        19
  90.0000        20
  90.0500        20
  90.1000        12
  90.1500        25
  90.2000        18
  90.2500        21
  90.3000        15
  90.3500        15
  90.4000        17
  90.4500        18
  90.5000        20
  90.5500        16
  90.6000        17
  90.6500        20
  90.7000        20
  90.7500        18
  90.8000        16
  90.8500        11
  90.9000        19
  90.9500        18
  91.0000        17
  91.0500        19
  91.1000        16
  91.1500         8
  91.2000        22
  91.2500        20
  91.3000        14
  91.3500        20
  91.4000        22
  91.4500        15
  91.5000        16
  91.5500        15
  91.6000        14
  91.6500        20
  91.7000        20
  91.7500        12
  91.8000        20
  91.8500        19
  91.9000         7
  91.9500        15
  92.0000        14
  92.0500        12
  92.1000        13
  92.1500        22
  92.2000         9
  92.2500        11
  92.3000        19
  92.3500        20
  92.4000        19
  92.4500        18
  92.5000        12
  92.5500        13
  92.6000        22
  92.6500        19
  92.7000        18
  92.7500        21
  92.8000        16
  92.8500        10
  92.9000        18
  92.9500        16
  93.0000        16
  93.0500        19
  93.1000        19
  93.1500         9
  93.2000        13
  93.2500        16
  93.3000        17
  93.3500         7
  93.4000        13
  93.4500        16
  93.5000        19
  93.5500        16
  93.6000        26
  93.6500        18
  93.7000        12
  93.7500        15
  93.8000         8
  93.8500        12
  93.9000        14
  93.9500        15
  94.0000        16
  94.0500        18
  94.1000        13
  94.1500        15
  94.2000        17
  94.2500        16
  94.3000        18
  94.3500        11
  94.4000        19
  94.4500        15
  94.5000        19
  94.5500         9
  94.6000        17
  94.6500        15
  94.7000        18
  94.7500        13
  94.8000        15
  94.8500        14
  94.9000        17
  94.9500         9
  95.0000        11
  95.0500        13
  95.1000        16
  95.1500        11
  95.2000        12
  95.2500        18
  95.3000        23
  95.3500        21
  95.4000        21
  95.4500        18
  95.5000        17
  95.5500        17
  95.6000        18
  95.6500        11
  95.7000        21
  95.7500        15
  95.8000        22
  95.8500        14
  95.9000        17
  95.9500        17
  96.0000        13
  96.0500        15
  96.1000        15
  96.1500        19
  96.2000        14
  96.2500        25
  96.3000        15
  96.3500         7
  96.4000         9
  96.4500        11
  96.5000        17
  96.5500        11
  96.6000        15
  96.6500        17
  96.7000        17
  96.7500        14
  96.8000        16
  96.8500        20
  96.9000        27
  96.9500        19
  97.0000        18
  97.0500        19
  97.1000        12
  97.1500        22
  97.2000        13
  97.2500        20
  97.3000        21
  97.3500        15
  97.4000        26
  97.4500        24
  97.5000        12
  97.5500        15
  97.6000        25
  97.6500         9
  97.7000        17
  97.7500        15
  97.8000        17
  97.8500        12
  97.9000        15
  97.9500        22
  98.0000        26
  98.0500        10
  98.1000        18
  98.1500        18
  98.2000        12
  98.2500        13
  98.3000        20
  98.3500        13
  98.4000        18
  98.4500        19
  98.5000        17
  98.5500        17
  98.6000        25
  98.6500        19
  98.7000        18
  98.7500        27
  98.8000        14
  98.8500        14
  98.9000        30
  98.9500        24
  99.0000        21
  99.0500        13
  99.1000        25
  99.1500        27
  99.2000        33
  99.2500        74
  99.3000        56
  99.3500        69
  99.4000        79
  99.4500        54
  99.5000        46
  99.5500        37
  99.6000        47
  99.6500        52
  99.7000        41
  99.7500        40
  99.8000        40
  99.8500        30
  99.9000        25
  99.9500        25
 100.0000        24
 100.0500        20
 100.1000        19
 100.1500        23
 100.2000        16
 100.2500        29
 100.3000        18
 100.3500        24
 100.4000        21
 100.4500        19
 100.5000        14
 100.5500        19
 100.6000        18
 100.6500        22
 100.7000        11
 100.7500        25
 100.8000        16
 100.8500        17
 100.9000        16
 100.9500         6
 101.0000        22
 101.0500        14
 101.1000        16
 101.1500        19
 101.2000        21
 101.2500        14
 101.3000        17
 101.3500        24
 101.4000        19
 101.4500         9
 101.5000        19
 101.5500        14
 101.6000        22
 101.6500        22
 101.7000        19
 101.7500        19
 101.8000        12
 101.8500        16
 101.9000        20
 101.9500        17
 102.0000        12
 102.0500        21
 102.1000         9
 102.1500        15
 102.2000        13
 102.2500        15
 102.3000        14
 102.3500        15
 102.4000        19
 102.4500        12
 102.5000        23
 102.5500        13
 102.6000         9
 102.6500        20
 102.7000        10
 102.7500        11
 102.8000        16
 102.8500        20
 102.9000        20
 102.9500        19
 103.0000        14
 103.0500        21
 103.1000        20
 103.1500        18
 103.2000        17
 103.2500        16
 103.3000        10
 103.3500        19
 103.4000        16
 103.4500        15
 103.5000        16
 103.5500        16
 103.6000        14
 103.6500        15
 103.7000        14
 103.7500         9
 103.8000        16
 103.8500        22
 103.9000        14
 103.9500        24
 104.0000        12
 104.0500        20
 104.1000        14
 104.1500        14
 104.2000        16
 104.2500        15
 104.3000        19
 104.3500        17
 104.4000        17
 104.4500        18
 104.5000        13
 104.5500        14
 104.6000        15
 104.6500        11
 104.7000        15
 104.7500        28
 104.8000        23
 104.8500        16
 104.9000        23
 104.9500        15
 105.0000        13
 105.0500        18
 105.1000        23
 105.1500        23
 105.2000        13
 105.2500        18
 105.3000        12
 105.3500        12
 105.4000        14
 105.4500        12
 105.5000        13
 105.5500        16
 105.6000        23
 105.6500        20
 105.7000        11
 105.7500        14
 105.8000        12
 105.8500        15
 105.9000        15
 105.9500        13
 106.0000        22
 106.0500        19
 106.1000        12
 106.1500        14
 106.2000        14
 106.2500        20
 106.3000        14
 106.3500        19
 106.4000        14
 106.4500        11
 106.5000        20
 106.5500        15
 106.6000        21
 106.6500         7
 106.7000        19
 106.7500        18
 106.8000        18
 106.8500        14
 106.9000        20
 106.9500        15
 107.0000        20
 107.0500        17
 107.1000        22
 107.1500        15
 107.2000        15
 107.2500        16
 107.3000        21
 107.3500        12
 107.4000        18
 107.4500        17
 107.5000        25
 107.5500        27
 107.6000        22
 107.6500        20
 107.7000        28
 107.7500        41
 107.8000        64
 107.8500        79
 107.9000        94
 107.9500        80
 108.0000        81
 108.0500        59
 108.1000        54
 108.1500        36
 108.2000        44
 108.2500        47
 108.3000        57
 108.3500        48
 108.4000        40
 108.4500        28
 108.5000        19
 108.5500        22
 108.6000        18
 108.6500        18
 108.7000        20
 108.7500        14
 108.8000        25
 108.8500        17
 108.9000        17
 108.9500        13
 109.0000        15
 109.0500        13
 109.1000        14
 109.1500        15
 109.2000        21
 109.2500        22
 109.3000        10
 109.3500        25
 109.4000        13
 109.4500        14
 109.5000        16
 109.5500        13
 109.6000        14
 109.6500        22
 109.7000        18
 109.7500        18
 109.8000        24
 109.8500        11
 109.9000        14
 109.9500        23
 110.0000        15
