  10.0000        29
  10.0500        41
  10.1000        49
  10.1500        35
  10.2000        48
  10.2500        37
  10.3000        28
  10.3500        46
  10.4000        43
  10.4500        32
  10.5000        51
  10.5500        42
  10.6000        48
  10.6500        35
  10.7000        26
  10.7500        48
  10.8000        41
  10.8500        44
  10.9000        60
  10.9500        35
  11.0000        43
  11.0500        37
  11.1000        51
  11.1500        43
  11.2000        37
  11.2500        43
  11.3000        45
  11.3500        41
  11.4000        58
  11.4500        43
  11.5000        55
  11.5500        52
  11.6000        59
  11.6500        48
  11.7000        51
  11.7500        54
  11.8000        54
  11.8500        55
  11.9000        51
  11.9500        59
  12.0000        51
  12.0500        46
  12.1000        57
  12.1500        52
  12.2000        41
  12.2500        48
  12.3000        60
  12.3500        41
  12.4000        42
  12.4500        47
  12.5000        43
  12.5500        40
  12.6000        60
  12.6500        49
  12.7000        48
  12.7500        53
  12.8000        42
  12.8500        50
  12.9000        49
  12.9500        41
  13.0000        36
  13.0500        44
  13.1000        47
  13.1500        40
  13.2000        49
  13.2500        39
  13.3000        49
  13.3500        34
  13.4000        40
  13.4500        39
  13.5000        38
  13.5500        47
  13.6000        33
  13.6500        40
  13.7000        41
  13.7500        36
  13.8000        40
  13.8500        41
  13.9000        36
  13.9500        45
  14.0000        39
  14.0500        38
  14.1000        44
  14.1500        35
  14.2000        38
  14.2500        40
  14.3000        45
  14.3500        37
  14.4000        44
  14.4500        28
  14.5000        37
  14.5500        37
  14.6000        38
  14.6500        26
  14.7000        35
  14.7500        28
  14.8000        37
  14.8500        22
  14.9000        36
  14.9500        25
  15.0000        35
  15.0500        25
  15.1000        35
  15.1500        35
  15.2000        27
  15.2500        39
  15.3000        33
  15.3500        33
  15.4000        20
  15.4500        23
  15.5000        30
  15.5500        31
  15.6000        25
  15.6500        40
  15.7000        30
  15.7500        18
  15.8000        38
  15.8500        37
  15.9000        35
  15.9500        33
  16.0000        34
  16.0500        29
  16.1000        24
  16.1500        35
  16.2000        22
  16.2500        33
  16.3000        43
  16.3500        27
  16.4000        30
  16.4500        35
  16.5000        25
  16.5500        35
  16.6000        29
  16.6500        25
  16.7000        27
  16.7500        30
  16.8000        47
  16.8500        36
  16.9000        28
  16.9500        38
  17.0000        34
  17.0500        28
  17.1000        25
  17.1500        25
  17.2000        34
  17.2500        31
  17.3000        29
  17.3500        31
  17.4000        27
  17.4500        33
  17.5000        31
  17.5500        36
  17.6000        20
  17.6500        27
  17.7000        31
  17.7500        22
  17.8000        38
  17.8500        42
  17.9000        24
  17.9500        34
  18.0000        27
  18.0500        26
  18.1000        40
  18.1500        31
  18.2000        30
  18.2500        32
  18.3000        29
  18.3500        35
  18.4000        26
  18.4500        26
  18.5000        26
  18.5500        28
  18.6000        35
  18.6500        31
  18.7000        29
  18.7500        24
  18.8000        24
  18.8500        26
  18.9000        34
  18.9500        21
  19.0000        34
  19.0500        33
  19.1000        25
  19.1500        26
  19.2000        33
  19.2500        28
  19.3000        24
  19.3500        27
  19.4000        38
  19.4500        24
  19.5000        32
  19.5500        23
  19.6000        23
  19.6500        28
  19.7000        21
  19.7500        23
  19.8000        31
  19.8500        37
  19.9000        29
  19.9500        25
  20.0000        35
  20.0500        28
  20.1000        30
  20.1500        23
  20.2000        28
  20.2500        41
  20.3000        29
  20.3500        35
  20.4000        24
  20.4500        33
  20.5000        35
  20.5500        45
  20.6000        28
  20.6500        28
  20.7000        24
  20.7500        30
  20.8000        37
  20.8500        32
  20.9000        48
  20.9500        26
  21.0000        28
  21.0500        30
  21.1000        34
  21.1500        32
  21.2000        33
  21.2500        27
  21.3000        27
  21.3500        30
  21.4000        44
  21.4500        33
  21.5000        28
  21.5500        31
  21.6000        25
  21.6500        18
  21.7000        36
  21.7500        33
  21.8000        29
  21.8500        30
  21.9000        36
  21.9500        29
  22.0000        37
  22.0500        29
  22.1000        29
  22.1500        24
  22.2000        27
  22.2500        32
  22.3000        25
  22.3500        22
  22.4000        26
  22.4500        27
  22.5000        40
  22.5500        38
  22.6000        26
  22.6500        31
  22.7000        26
  22.7500        38
  22.8000        40
  22.8500        32
  22.9000        33
  22.9500        38
  23.0000        29
  23.0500        31
  23.1000        30
  23.1500        28
  23.2000        32
  23.2500        31
  23.3000        30
  23.3500        34
  23.4000        31
  23.4500        30
  23.5000        25
  23.5500        34
  23.6000        29
  23.6500        32
  23.7000        35
  23.7500        35
  23.8000        21
  23.8500        30
  23.9000        21
  23.9500        34
  24.0000        29
  24.0500        22
  24.1000        28
  24.1500        37
  24.2000        25
  24.2500        42
  24.3000        28
  24.3500        36
  24.4000        22
  24.4500        31
  24.5000        35
  24.5500        25
  24.6000        30
  24.6500        34
  24.7000        31
  24.7500        23
  24.8000        38
  24.8500        28
  24.9000        29
  24.9500        35
  25.0000        24
  25.0500        32
  25.1000        25
  25.1500        25
  25.2000        33
  25.2500        40
  25.3000        25
  25.3500        36
  25.4000        26
  25.4500        26
  25.5000        40
  25.5500        25
  25.6000        20
  25.6500        24
  25.7000        22
  25.7500        38
  25.8000        23
  25.8500        28
  25.9000        24
  25.9500        27
  26.0000        32
  26.0500        22
  26.1000        26
  26.1500        33
  26.2000        24
  26.2500        26
  26.3000        21
  26.3500        37
  26.4000        34
  26.4500        25
  26.5000        34
  26.5500        27
  26.6000        26
  26.6500        38
  26.7000        31
  26.7500        23
  26.8000        27
  26.8500        17
  26.9000        23
  26.9500        33
  27.0000        28
  27.0500        31
  27.1000        28
  27.1500        33
  27.2000        27
  27.2500        19
  27.3000        25
  27.3500        22
  27.4000        17
  27.4500        19
  27.5000        37
  27.5500        22
  27.6000        23
  27.6500        24
  27.7000        22
  27.7500        26
  27.8000        26
  27.8500        21
  27.9000        19
  27.9500        26
  28.0000        19
  28.0500        30
  28.1000        19
  28.1500        19
  28.2000        25
  28.2500        33
  28.3000        32
  28.3500        29
  28.4000        21
  28.4500        24
  28.5000        28
  28.5500        29
  28.6000        29
  28.6500        25
  28.7000        15
  28.7500        31
  28.8000        26
  28.8500        21
  28.9000        28
  28.9500        22
  29.0000        16
  29.0500         9
  29.1000        18
  29.1500        26
  29.2000        27
  29.2500        28
  29.3000        22
  29.3500        20
  29.4000        15
  29.4500        28
  29.5000        26
  29.5500        17
  29.6000        20
  29.6500        18
  29.7000        19
  29.7500        22
  29.8000        23
  29.8500        18
  29.9000        27
  29.9500        22
  30.0000        23
  30.0500        19
  30.1000        22
  30.1500        31
  30.2000        22
  30.2500        26
  30.3000        28
  30.3500        24
  30.4000        25
  30.4500        20
  30.5000        17
  30.5500        19
  30.6000        23
  30.6500        21
  30.7000        33
  30.7500        31
  30.8000        19
  30.8500        17
  30.9000        30
  30.9500        20
  31.0000        29
  31.0500        20
  31.1000        19
  31.1500        30
  31.2000        27
  31.2500        24
  31.3000        19
  31.3500        31
  31.4000        21
  31.4500        24
  31.5000        17
  31.5500        21
  31.6000        29
  31.6500        13
  31.7000        24
  31.7500        26
  31.8000        22
  31.8500        19
  31.9000        18
  31.9500        23
  32.0000        20
  32.0500        19
  32.1000        20
  32.1500        20
  32.2000        29
  32.2500        21
  32.3000        15
  32.3500        18
  32.4000        25
  32.4500        23
  32.5000        24
  32.5500        27
  32.6000        13
  32.6500        15
  32.7000        22
  32.7500        16
  32.8000        22
  32.8500        19
  32.9000        19
  32.9500        20
  33.0000        28
  33.0500        26
  33.1000        12
  33.1500        16
  33.2000        14
  33.2500        23
  33.3000        21
  33.3500        21
  33.4000        21
  33.4500        12
  33.5000        23
  33.5500        24
  33.6000        18
  33.6500        25
  33.7000        11
  33.7500        23
  33.8000        15
  33.8500        16
  33.9000        21
  33.9500        14
  34.0000        18
  34.0500        18
  34.1000        15
  34.1500        19
  34.2000        17
  34.2500        15
  34.3000        23
  34.3500        21
  34.4000        14
  34.4500        20
  34.5000        17
  34.5500        23
  34.6000        26
  34.6500        20
  34.7000        19
  34.7500        26
  34.8000        23
  34.8500        24
  34.9000        10
  34.9500        20
  35.0000        20
  35.0500        20
  35.1000        12
  35.1500        23
  35.2000        17
  35.2500        12
  35.3000        21
  35.3500        16
  35.4000        19
  35.4500        25
  35.5000        18
  35.5500        18
  35.6000        22
  35.6500        17
  35.7000        15
  35.7500        23
  35.8000        17
  35.8500        25
  35.9000        25
  35.9500        19
  36.0000        20
  36.0500        24
  36.1000        20
  36.1500        11
  36.2000        22
  36.2500        17
  36.3000        20
  36.3500        18
  36.4000        11
  36.4500        17
  36.5000        16
  36.5500        21
  36.6000        19
  36.6500        13
  36.7000        13
  36.7500        15
  36.8000        18
  36.8500        12
  36.9000        16
  36.9500        16
  37.0000        12
  37.0500        12
  37.1000        14
  37.1500        10
  37.2000        13
  37.2500        15
  37.3000        22
  37.3500        14
  37.4000        17
  37.4500        21
  37.5000        29
  37.5500        19
  37.6000        22
  37.6500        15
  37.7000        21
  37.7500        21
  37.8000        16
  37.8500        24
  37.9000        17
  37.9500        14
  38.0000        19
  38.0500        25
  38.1000        28
  38.1500        22
  38.2000        16
  38.2500        16
  38.3000        15
  38.3500        22
  38.4000        13
  38.4500        21
  38.5000        18
  38.5500        13
  38.6000        15
  38.6500        15
  38.7000        22
  38.7500        17
  38.8000        13
  38.8500        15
  38.9000        17
  38.9500        13
  39.0000        22
  39.0500        19
  39.1000        16
  39.1500        21
  39.2000        16
  39.2500        21
  39.3000        14
  39.3500        19
  39.4000        25
  39.4500        15
  39.5000        16
  39.5500        18
  39.6000        23
  39.6500        20
  39.7000        16
  39.7500        19
  39.8000        23
  39.8500        20
  39.9000        12
  39.9500        20
  40.0000        25
  40.0500        20
  40.1000        15
  40.1500        15
  40.2000        13
  40.2500        18
  40.3000        22
  40.3500        21
  40.4000        23
  40.4500        26
  40.5000        18
  40.5500        22
  40.6000        25
  40.6500        18
  40.7000        21
  40.7500        24
  40.8000        20
  40.8500        15
  40.9000        21
  40.9500        27
  41.0000        24
  41.0500        18
  41.1000        14
  41.1500        15
  41.2000        22
  41.2500        16
  41.3000        24
  41.3500        28
  41.4000        42
  41.4500        55
  41.5000        88
  41.5500       205
  41.6000       420
  41.6500       648
  41.7000       771
  41.7500       725
  41.8000       511
  41.8500       303
  41.9000       160
  41.9500        81
  42.0000        44
  42.0500        32
  42.1000        16
  42.1500        19
  42.2000        22
  42.2500        30
  42.3000        23
  42.3500        24
  42.4000        18
  42.4500        14
  42.5000        19
  42.5500        16
  42.6000        16
  42.6500        16
  42.7000        12
  42.7500        18
  42.8000        12
  42.8500        21
  42.9000        17
  42.9500        20
  43.0000        13
  43.0500        16
  43.1000        15
  43.1500        13
  43.2000        12
  43.2500        16
  43.3000        17
  43.3500        14
  43.4000        17
  43.4500        13
  43.5000        16
  43.5500        13
  43.6000        10
  43.6500         9
  43.7000        21
  43.7500        12
  43.8000        11
  43.8500        14
  43.9000        12
  43.9500        13
  44.0000        16
  44.0500        15
  44.1000        14
  44.1500        12
  44.2000        16
  44.2500        12
  44.3000        17
  44.3500        25
  44.4000        28
  44.4500        12
  44.5000        18
  44.5500        24
  44.6000        18
  44.6500        30
  44.7000        15
  44.7500        10
  44.8000        12
  44.8500        16
  44.9000        15
  44.9500        18
  45.0000        18
  45.0500        13
  45.1000        14
  45.1500        15
  45.2000        20
  45.2500        15
  45.3000        11
  45.3500        13
  45.4000        16
  45.4500        19
  45.5000        15
  45.5500        17
  45.6000        17
  45.6500        11
  45.7000        15
  45.7500        20
  45.8000        19
  45.8500        17
  45.9000         9
  45.9500        19
  46.0000        14
  46.0500        14
  46.1000        14
  46.1500        21
  46.2000        23
  46.2500        13
  46.3000        19
  46.3500        19
  46.4000        23
  46.4500        11
  46.5000        15
  46.5500        14
  46.6000        18
  46.6500        18
  46.7000        14
  46.7500        11
  46.8000        12
  46.8500        11
  46.9000        16
  46.9500        19
  47.0000        19
  47.0500        11
  47.1000        15
  47.1500        10
  47.2000        18
  47.2500        17
  47.3000        13
  47.3500        18
  47.4000        25
  47.4500        25
  47.5000        22
  47.5500        18
  47.6000        12
  47.6500        25
  47.7000        10
  47.7500        16
  47.8000        14
  47.8500        13
  47.9000        18
  47.9500        26
  48.0000        15
  48.0500        17
  48.1000        17
  48.1500        14
  48.2000        23
  48.2500        20
  48.3000        41
  48.3500        80
  48.4000       148
  48.4500       290
  48.5000       321
  48.5500       409
  48.6000       332
  48.6500       229
  48.7000       164
  48.7500        81
  48.8000        35
  48.8500        32
  48.9000        21
  48.9500        18
  49.0000        25
  49.0500        19
  49.1000        15
  49.1500        18
  49.2000        18
  49.2500        18
  49.3000        13
  49.3500        15
  49.4000        21
  49.4500        17
  49.5000        17
  49.5500        19
  49.6000        21
  49.6500        17
  49.7000        10
  49.7500        18
  49.8000        21
  49.8500        13
  49.9000        17
  49.9500        13
  50.0000        18
  50.0500         9
  50.1000        21
  50.1500        16
  50.2000        19
  50.2500        21
  50.3000        12
  50.3500        17
  50.4000        12
  50.4500        15
  50.5000        11
  50.5500        15
  50.6000         9
  50.6500        16
  50.7000         9
  50.7500        10
  50.8000         9
  50.8500        10
  50.9000        13
  50.9500        13
  51.0000        15
  51.0500        13
  51.1000        13
  51.1500         9
  51.2000        13
  51.2500        15
  51.3000        19
  51.3500        17
  51.4000        16
  51.4500        13
  51.5000        11
  51.5500        18
  51.6000        21
  51.6500        23
  51.7000        16
  51.7500        18
  51.8000        14
  51.8500        14
  51.9000        12
  51.9500        17
  52.0000        21
  52.0500        11
  52.1000        16
  52.1500        15
  52.2000        14
  52.2500        16
  52.3000        11
  52.3500        18
  52.4000        12
  52.4500        13
  52.5000        12
  52.5500        18
  52.6000        20
  52.6500        14
  52.7000        12
  52.7500        11
  52.8000        19
  52.8500        15
  52.9000        15
  52.9500        13
  53.0000        16
  53.0500        13
  53.1000        13
  53.1500        14
  53.2000        18
  53.2500        15
  53.3000        13
  53.3500        16
  53.4000        21
  53.4500        12
  53.5000        17
  53.5500        10
  53.6000        14
  53.6500        15
  53.7000        14
  53.7500        12
  53.8000        21
  53.8500        15
  53.9000        14
  53.9500        16
  54.0000        19
  54.0500        15
  54.1000        24
  54.1500        14
  54.2000        16
  54.2500        10
  54.3000        14
  54.3500        13
  54.4000        17
  54.4500        19
  54.5000        13
  54.5500        17
  54.6000        21
  54.6500        19
  54.7000         8
  54.7500        17
  54.8000        15
  54.8500        13
  54.9000        21
  54.9500        19
  55.0000        14
  55.0500         7
  55.1000        25
  55.1500        17
  55.2000        11
  55.2500        13
  55.3000        11
  55.3500        17
  55.4000        15
  55.4500        13
  55.5000        15
  55.5500        12
  55.6000        12
  55.6500        15
  55.7000        19
  55.7500        13
  55.8000        23
  55.8500        23
  55.9000        13
  55.9500        12
  56.0000        22
  56.0500        15
  56.1000        11
  56.1500        19
  56.2000        11
  56.2500        15
  56.3000        21
  56.3500        20
  56.4000        21
  56.4500        17
  56.5000        13
  56.5500        15
  56.6000        17
  56.6500        19
  56.7000         8
  56.7500        14
  56.8000        16
  56.8500        26
  56.9000        16
  56.9500        20
  57.0000         9
  57.0500        19
  57.1000         9
  57.1500        19
  57.2000        17
  57.2500        24
  57.3000        16
  57.3500        13
  57.4000        16
  57.4500        13
  57.5000        18
  57.5500        19
  57.6000        13
  57.6500        16
  57.7000        16
  57.7500        14
  57.8000        15
  57.8500        10
  57.9000        12
  57.9500        18
  58.0000        15
  58.0500        15
  58.1000        20
  58.1500        17
  58.2000        13
  58.2500        14
  58.3000        15
  58.3500        12
  58.4000        13
  58.4500        18
  58.5000        12
  58.5500        17
  58.6000        20
  58.6500        13
  58.7000        19
  58.7500         9
  58.8000        10
  58.8500        20
  58.9000        16
  58.9500        10
  59.0000        14
  59.0500        12
  59.1000        20
  59.1500        10
  59.2000        13
  59.2500        17
  59.3000        11
  59.3500        16
  59.4000        22
  59.4500        21
  59.5000        10
  59.5500        16
  59.6000        13
  59.6500        15
  59.7000        16
  59.7500        10
  59.8000        19
  59.8500        12
  59.9000        21
  59.9500        20
  60.0000        17
  60.0500        14
  60.1000        14
  60.1500        10
  60.2000        17
  60.2500        12
  60.3000        20
  60.3500        12
  60.4000        19
  60.4500        22
  60.5000         9
  60.5500        22
  60.6000        25
  60.6500        18
  60.7000        15
  60.7500        17
  60.8000        18
  60.8500        19
  60.9000        22
  60.9500        19
  61.0000        12
  61.0500        19
  61.1000        14
  61.1500        20
  61.2000        19
  61.2500        23
  61.3000        18
  61.3500        23
  61.4000        15
  61.4500        14
  61.5000        21
  61.5500        16
  61.6000        15
  61.6500        21
  61.7000        10
  61.7500         9
  61.8000        13
  61.8500        15
  61.9000        18
  61.9500        14
  62.0000        10
  62.0500        12
  62.1000        10
  62.1500        18
  62.2000        15
  62.2500        18
  62.3000        15
  62.3500        16
  62.4000         8
  62.4500        18
  62.5000        10
  62.5500        20
  62.6000        17
  62.6500        16
  62.7000        14
  62.7500        14
  62.8000        22
  62.8500        17
  62.9000         9
  62.9500        16
  63.0000        10
  63.0500        16
  63.1000        19
  63.1500        11
  63.2000        24
  63.2500        14
  63.3000        12
  63.3500        17
  63.4000        16
  63.4500        12
  63.5000         9
  63.5500        16
  63.6000        15
  63.6500         6
  63.7000         8
  63.7500        19
  63.8000        13
  63.8500        16
  63.9000        24
  63.9500        12
  64.0000        18
  64.0500        15
  64.1000        14
  64.1500        12
  64.2000        15
  64.2500        15
  64.3000        12
  64.3500        23
  64.4000        11
  64.4500        16
  64.5000        16
  64.5500        11
  64.6000        19
  64.6500        18
  64.7000        19
  64.7500        15
  64.8000         9
  64.8500        19
  64.9000        14
  64.9500        19
  65.0000        17
  65.0500        19
  65.1000         9
  65.1500        19
  65.2000        11
  65.2500        14
  65.3000        15
  65.3500        15
  65.4000        22
  65.4500        12
  65.5000        16
  65.5500        12
  65.6000        12
  65.6500        18
  65.7000        17
  65.7500        22
  65.8000        12
  65.8500        16
  65.9000        14
  65.9500        16
  66.0000        12
  66.0500        12
  66.1000         9
  66.1500        20
  66.2000        14
  66.2500        12
  66.3000        16
  66.3500        21
  66.4000        19
  66.4500        11
  66.5000        12
  66.5500        13
  66.6000        17
  66.6500        13
  66.7000        24
  66.7500        10
  66.8000        12
  66.8500        26
  66.9000        11
  66.9500        18
  67.0000        19
  67.0500        13
  67.1000        13
  67.1500        14
  67.2000        19
  67.2500        16
  67.3000        15
  67.3500        12
  67.4000        18
  67.4500        17
  67.5000        12
  67.5500        13
  67.6000        11
  67.6500         7
  67.7000        15
  67.7500        15
  67.8000        16
  67.8500        15
  67.9000        17
  67.9500        10
  68.0000        23
  68.0500        22
  68.1000        16
  68.1500         8
  68.2000        19
  68.2500        17
  68.3000        19
  68.3500        18
  68.4000        16
  68.4500         8
  68.5000        17
  68.5500         9
  68.6000        14
  68.6500        24
  68.7000        10
  68.7500         9
  68.8000        14
  68.8500        19
  68.9000        27
  68.9500        15
  69.0000        20
  69.0500        16
  69.1000        17
  69.1500        12
  69.2000        13
  69.2500        18
  69.3000        11
  69.3500        16
  69.4000        14
  69.4500        11
  69.5000        16
  69.5500        16
  69.6000        20
  69.6500        18
  69.7000        19
  69.7500        15
  69.8000        22
  69.8500        12
  69.9000        17
  69.9500        15
  70.0000        14
  70.0500        19
  70.1000        17
  70.1500        17
  70.2000        19
  70.2500        14
  70.3000        10
  70.3500        16
  70.4000        13
  70.4500        14
  70.5000        17
  70.5500        16
  70.6000        17
  70.6500        12
  70.7000        23
  70.7500        27
  70.8000        32
  70.8500        32
  70.9000        98
  70.9500       196
  71.0000       223
  71.0500       188
  71.1000       149
  71.1500       151
  71.2000       132
  71.2500       113
  71.3000        74
  71.3500        40
  71.4000        30
  71.4500        26
  71.5000        19
  71.5500        16
  71.6000        19
  71.6500        17
  71.7000        22
  71.7500        12
  71.8000        21
  71.8500        20
  71.9000        10
  71.9500        17
  72.0000        15
  72.0500        17
  72.1000         9
  72.1500        16
  72.2000        14
  72.2500        12
  72.3000        16
  72.3500        21
  72.4000        14
  72.4500        13
  72.5000        21
  72.5500        16
  72.6000        12
  72.6500        15
  72.7000        15
  72.7500        11
  72.8000        11
  72.8500        12
  72.9000        12
  72.9500        12
  73.0000        10
  73.0500        19
  73.1000        11
  73.1500        11
  73.2000        17
  73.2500         6
  73.3000        21
  73.3500        12
  73.4000        15
  73.4500        12
  73.5000        16
  73.5500        17
  73.6000        12
  73.6500        16
  73.7000        17
  73.7500        16
  73.8000         9
  73.8500        10
  73.9000        15
  73.9500        11
  74.0000        10
  74.0500        14
  74.1000        12
  74.1500        17
  74.2000        10
  74.2500        10
  74.3000        20
  74.3500        17
  74.4000        13
  74.4500         8
  74.5000        13
  74.5500         8
  74.6000        14
  74.6500        20
  74.7000        17
  74.7500        13
  74.8000        14
  74.8500        14
  74.9000        10
  74.9500        13
  75.0000        12
  75.0500        26
  75.1000        16
  75.1500        13
  75.2000        11
  75.2500        16
  75.3000        23
  75.3500        10
  75.4000         9
  75.4500        13
  75.5000        13
  75.5500        18
  75.6000        17
  75.6500        16
  75.7000        20
  75.7500        10
  75.8000        11
  75.8500        13
  75.9000        15
  75.9500        12
  76.0000        12
  76.0500        13
  76.1000        15
  76.1500        12
  76.2000        25
  76.2500        13
  76.3000        17
  76.3500        12
  76.4000        19
  76.4500        18
  76.5000        10
  76.5500        11
  76.6000        13
  76.6500        11
  76.7000        10
  76.7500        16
  76.8000        11
  76.8500        19
  76.9000        12
  76.9500        23
  77.0000        17
  77.0500        21
  77.1000        11
  77.1500        13
  77.2000        13
  77.2500        13
  77.3000        13
  77.3500        16
  77.4000        14
  77.4500        18
  77.5000        10
  77.5500        13
  77.6000        20
  77.6500        12
  77.7000        15
  77.7500        16
  77.8000        14
  77.8500        13
  77.9000        13
  77.9500        15
  78.0000        17
  78.0500        11
  78.1000        11
  78.1500        15
  78.2000        19
  78.2500        14
  78.3000        13
  78.3500        16
  78.4000        15
  78.4500        13
  78.5000         6
  78.5500        24
  78.6000        15
  78.6500        10
  78.7000        11
  78.7500        17
  78.8000        12
  78.8500        11
  78.9000         6
  78.9500        16
  79.0000        12
  79.0500        16
  79.1000        11
  79.1500        18
  79.2000        15
  79.2500        10
  79.3000        18
  79.3500        17
  79.4000        11
  79.4500        10
  79.5000        16
  79.5500        12
  79.6000        15
  79.6500        13
  79.7000         9
  79.7500         7
  79.8000        15
  79.8500        13
  79.9000        11
  79.9500         6
  80.0000        14
  80.0500        10
  80.1000        11
  80.1500        15
  80.2000        15
  80.2500        19
  80.3000        11
  80.3500        15
  80.4000         9
  80.4500        12
  80.5000        14
  80.5500        12
  80.6000        11
  80.6500        17
  80.7000        15
  80.7500        12
  80.8000         9
  80.8500        20
  80.9000         9
  80.9500        17
  81.0000        16
  81.0500        16
  81.1000        12
  81.1500        16
  81.2000        17
  81.2500         9
  81.3000        13
  81.3500        12
  81.4000        18
  81.4500        12
  81.5000        13
  81.5500        10
  81.6000         9
  81.6500        10
  81.7000        16
  81.7500        10
  81.8000        13
  81.8500        19
  81.9000        22
  81.9500        11
  82.0000        16
  82.0500        15
  82.1000        13
  82.1500        13
  82.2000         9
  82.2500        12
  82.3000        13
  82.3500        11
  82.4000        19
  82.4500         7
  82.5000        11
  82.5500        14
  82.6000        14
  82.6500        11
  82.7000        15
  82.7500        16
  82.8000        17
  82.8500        17
  82.9000        12
  82.9500        14
  83.0000        19
  83.0500        16
  83.1000        15
  83.1500        17
  83.2000        13
  83.2500        16
  83.3000         7
  83.3500        11
  83.4000        13
  83.4500        16
  83.5000        19
  83.5500        21
  83.6000        11
  83.6500        16
  83.7000        16
  83.7500        13
  83.8000         8
  83.8500         9
  83.9000        13
  83.9500        10
  84.0000        18
  84.0500        14
  84.1000        13
  84.1500        16
  84.2000        19
  84.2500        11
  84.3000        11
  84.3500        13
  84.4000        10
  84.4500        19
  84.5000        10
  84.5500        21
  84.6000        15
  84.6500        17
  84.7000        10
  84.7500        12
  84.8000        14
  84.8500        16
  84.9000         9
  84.9500        16
  85.0000         9
  85.0500        20
  85.1000        13
  85.1500        11
  85.2000        18
  85.2500        13
  85.3000        19
  85.3500        15
  85.4000        20
  85.4500        24
  85.5000        22
  85.5500        32
  85.6000        26
  85.6500        46
  85.7000       108
  85.7500       179
  85.8000       284
  85.8500       264
  85.9000       205
  85.9500       141
  86.0000       118
  86.0500       112
  86.1000       144
  86.1500       110
  86.2000        87
  86.2500        36
  86.3000        27
  86.3500        18
  86.4000        16
  86.4500        17
  86.5000        15
  86.5500        11
  86.6000        10
  86.6500        19
  86.7000        13
  86.7500        11
  86.8000        26
  86.8500        14
  86.9000        14
  86.9500        15
  87.0000        20
  87.0500        13
  87.1000        10
  87.1500        13
  87.2000        20
  87.2500        15
  87.3000        10
  87.3500        16
  87.4000        12
  87.4500        11
  87.5000        13
  87.5500        12
  87.6000        26
  87.6500        14
  87.7000        22
  87.7500        12
  87.8000        18
  87.8500        14
  87.9000        22
  87.9500        19
  88.0000        19
  88.0500        14
  88.1000        18
  88.1500        18
  88.2000        17
  88.2500        28
  88.3000        14
  88.3500        13
  88.4000        14
  88.4500        14
  88.5000        10
  88.5500        18
  88.6000        16
  88.6500        11
  88.7000        18
  88.7500        16
  88.8000        17
  88.8500         9
  88.9000        11
  88.9500        11
  89.0000        14
  89.0500        15
  89.1000        11
  89.1500        26
  89.2000        14
  89.2500        12
  89.3000        13
  89.3500        16
  89.4000        16
  89.4500        16
  89.5000        17
  89.5500        10
  89.6000        15
  89.6500        16
  89.7000        10
  89.7500        12
  89.8000        11
  89.8500        13
  89.9000        13
  89.9500        10
  90.0000        19
  90.0500        16
  90.1000        15
  90.1500        11
  90.2000        15
  90.2500        14
  90.3000        13
  90.3500        15
  90.4000        18
  90.4500        19
  90.5000        29
  90.5500        54
  90.6000        85
  90.6500        96
  90.7000        89
  90.7500        56
  90.8000        30
  90.8500        40
  90.9000        42
  90.9500        66
  91.0000        41
  91.0500        36
  91.1000        25
  91.1500        24
  91.2000        22
  91.2500        16
  91.3000         9
  91.3500        10
  91.4000        16
  91.4500        14
  91.5000        13
  91.5500        10
  91.6000        11
  91.6500        18
  91.7000        11
  91.7500        10
  91.8000        20
  91.8500        14
  91.9000         6
  91.9500        19
  92.0000        12
  92.0500        14
  92.1000        17
  92.1500        13
  92.2000        19
  92.2500        17
  92.3000        11
  92.3500        10
  92.4000        11
  92.4500         9
  92.5000        17
  92.5500        13
  92.6000        13
  92.6500        14
  92.7000        16
  92.7500        12
  92.8000        19
  92.8500        16
  92.9000        20
  92.9500        17
  93.0000        17
  93.0500        12
  93.1000        13
  93.1500        18
  93.2000        12
  93.2500        12
  93.3000        15
  93.3500        11
  93.4000        13
  93.4500        16
  93.5000         8
  93.5500        11
  93.6000        12
  93.6500        12
  93.7000        15
  93.7500        11
  93.8000        11
  93.8500        14
  93.9000         8
  93.9500        14
  94.0000        10
  94.0500        20
  94.1000        13
  94.1500         7
  94.2000        18
  94.2500         9
  94.3000         9
  94.3500        12
  94.4000        11
  94.4500        13
  94.5000        11
  94.5500        16
  94.6000        12
  94.6500        17
  94.7000         9
  94.7500        12
  94.8000        11
  94.8500        12
  94.9000        13
  94.9500        11
  95.0000        11
  95.0500        22
  95.1000        13
  95.1500        17
  95.2000        12
  95.2500        16
  95.3000        13
  95.3500        12
  95.4000        16
  95.4500         9
  95.5000        18
  95.5500        11
  95.6000        10
  95.6500        12
  95.7000        11
  95.7500        11
  95.8000         7
  95.8500        13
  95.9000        11
  95.9500        14
  96.0000        16
  96.0500        10
  96.1000        15
  96.1500        14
  96.2000        13
  96.2500        18
  96.3000        12
  96.3500        19
  96.4000        11
  96.4500        15
  96.5000        19
  96.5500         9
  96.6000        10
  96.6500        16
  96.7000        12
  96.7500        14
  96.8000        17
  96.8500         9
  96.9000        14
  96.9500        15
  97.0000         8
  97.0500        11
  97.1000        18
  97.1500        11
  97.2000        11
  97.2500        12
  97.3000        12
  97.3500        18
  97.4000        14
  97.4500        17
  97.5000         7
  97.5500        14
  97.6000        10
  97.6500        10
  97.7000        13
  97.7500        15
  97.8000        11
  97.8500        12
  97.9000        10
  97.9500        14
  98.0000        15
  98.0500        16
  98.1000         8
  98.1500        14
  98.2000        17
  98.2500        16
  98.3000        21
  98.3500        10
  98.4000        15
  98.4500        11
  98.5000        16
  98.5500        17
  98.6000        15
  98.6500        17
  98.7000        13
  98.7500        11
  98.8000         7
  98.8500        12
  98.9000        15
  98.9500        15
  99.0000        13
  99.0500         6
  99.1000         7
  99.1500        16
  99.2000        10
  99.2500        14
  99.3000        18
  99.3500        11
  99.4000        14
  99.4500        11
  99.5000        16
  99.5500        18
  99.6000         4
  99.6500        14
  99.7000        11
  99.7500        11
  99.8000        13
  99.8500        13
  99.9000        24
  99.9500        13
 100.0000        11
 100.0500        16
 100.1000        15
 100.1500        11
 100.2000        17
 100.2500        16
 100.3000         9
 100.3500        12
 100.4000        16
 100.4500        17
 100.5000        13
 100.5500        11
 100.6000         9
 100.6500        11
 100.7000        14
 100.7500        11
 100.8000        10
 100.8500        12
 100.9000        12
 100.9500         8
 101.0000        10
 101.0500        12
 101.1000         7
 101.1500        11
 101.2000         9
 101.2500        16
 101.3000         6
 101.3500        14
 101.4000        13
 101.4500        11
 101.5000        14
 101.5500        14
 101.6000        14
 101.6500        15
 101.7000        18
 101.7500         7
 101.8000        20
 101.8500        15
 101.9000        18
 101.9500        15
 102.0000        20
 102.0500        16
 102.1000        22
 102.1500        16
 102.2000        16
 102.2500         6
 102.3000        14
 102.3500        11
 102.4000        16
 102.4500        12
 102.5000        10
 102.5500         6
 102.6000         8
 102.6500        16
 102.7000        14
 102.7500        18
 102.8000         9
 102.8500         9
 102.9000        19
 102.9500        12
 103.0000        17
 103.0500        11
 103.1000        13
 103.1500        14
 103.2000        10
 103.2500        11
 103.3000        16
 103.3500         5
 103.4000        16
 103.4500        19
 103.5000        14
 103.5500        13
 103.6000        14
 103.6500        15
 103.7000        16
 103.7500        20
 103.8000        17
 103.8500         7
 103.9000         7
 103.9500        14
 104.0000         9
 104.0500        12
 104.1000        15
 104.1500        10
 104.2000        11
 104.2500        10
 104.3000        13
 104.3500        15
 104.4000        12
 104.4500        19
 104.5000         9
 104.5500        11
 104.6000        22
 104.6500        19
 104.7000        10
 104.7500        12
 104.8000        11
 104.8500        13
 104.9000        17
 104.9500        14
 105.0000        14
 105.0500        11
 105.1000        13
 105.1500         9
 105.2000        12
 105.2500        16
 105.3000        14
 105.3500        17
 105.4000        11
 105.4500        18
 105.5000        14
 105.5500         7
 105.6000         6
 105.6500        10
 105.7000        18
 105.7500        13
 105.8000        10
 105.8500        13
 105.9000        16
 105.9500         8
 106.0000        11
 106.0500        27
 106.1000         8
 106.1500        11
 106.2000        13
 106.2500         5
 106.3000        14
 106.3500        16
 106.4000         6
 106.4500        14
 106.5000        13
 106.5500         9
 106.6000        12
 106.6500        11
 106.7000        11
 106.7500        11
 106.8000        10
 106.8500        13
 106.9000        12
 106.9500        12
 107.0000        13
 107.0500        17
 107.1000        12
 107.1500        15
 107.2000         8
 107.2500        11
 107.3000        18
 107.3500        16
 107.4000        11
 107.4500        11
 107.5000        15
 107.5500        18
 107.6000         8
 107.6500        20
 107.7000        14
 107.7500        10
 107.8000        15
 107.8500        11
 107.9000        17
 107.9500        11
 108.0000         9
 108.0500        12
 108.1000        17
 108.1500        19
 108.2000         7
 108.2500        14
 108.3000        10
 108.3500        13
 108.4000        16
 108.4500        16
 108.5000         8
 108.5500        22
 108.6000        10
 108.6500        12
 108.7000        16
 108.7500        17
 108.8000        15
 108.8500        13
 108.9000        15
 108.9500        14
 109.0000        12
 109.0500        10
 109.1000        14
 109.1500        11
 109.2000        16
 109.2500        17
 109.3000        11
 109.3500         7
 109.4000        13
 109.4500        11
 109.5000        14
 109.5500         9
 109.6000        16
 109.6500        14
 109.7000        16
 109.7500        19
 109.8000        18
 109.8500        13
 109.9000        18
 109.9500        14
 110.0000        15
