  10.0000        39
  10.0500        37
  10.1000        29
  10.1500        36
  10.2000        43
  10.2500        36
  10.3000        33
  10.3500        29
  10.4000        29
  10.4500        41
  10.5000        33
  10.5500        34
  10.6000        40
  10.6500        36
  10.7000        40
  10.7500        42
  10.8000        39
  10.8500        34
  10.9000        46
  10.9500        47
  11.0000        59
  11.0500        52
  11.1000        26
  11.1500        42
  11.2000        51
  11.2500        54
  11.3000        59
  11.3500        52
  11.4000        48
  11.4500        50
  11.5000        33
  11.5500        35
  11.6000        42
  11.6500        46
  11.7000        52
  11.7500        41
  11.8000        43
  11.8500        45
  11.9000        43
  11.9500        39
  12.0000        38
  12.0500        47
  12.1000        42
  12.1500        34
  12.2000        48
  12.2500        46
  12.3000        46
  12.3500        34
  12.4000        39
  12.4500        41
  12.5000        52
  12.5500        45
  12.6000        44
  12.6500        44
  12.7000        55
  12.7500        53
  12.8000        40
  12.8500        37
  12.9000        36
  12.9500        51
  13.0000        34
  13.0500        30
  13.1000        38
  13.1500        46
  13.2000        45
  13.2500        45
  13.3000        50
  13.3500        43
  13.4000        45
  13.4500        47
  13.5000        29
  13.5500        44
  13.6000        37
  13.6500        39
  13.7000        45
  13.7500        39
  13.8000        47
  13.8500        46
  13.9000        43
  13.9500        32
  14.0000        36
  14.0500        38
  14.1000        50
  14.1500        35
  14.2000        35
  14.2500        33
  14.3000        29
  14.3500        31
  14.4000        33
  14.4500        39
  14.5000        36
  14.5500        44
  14.6000        33
  14.6500        30
  14.7000        25
  14.7500        30
  14.8000        44
  14.8500        41
  14.9000        34
  14.9500        38
  15.0000        27
  15.0500        42
  15.1000        43
  15.1500        35
  15.2000        31
  15.2500        36
  15.3000        30
  15.3500        29
  15.4000        31
  15.4500        29
  15.5000        33
  15.5500        23
  15.6000        35
  15.6500        37
  15.7000        28
  15.7500        32
  15.8000        33
  15.8500        41
  15.9000        29
  15.9500        30
  16.0000        27
  16.0500        26
  16.1000        24
  16.1500        40
  16.2000        28
  16.2500        31
  16.3000        32
  16.3500        35
  16.4000        30
  16.4500        29
  16.5000        34
  16.5500        31
  16.6000        30
  16.6500        24
  16.7000        27
  16.7500        29
  16.8000        29
  16.8500        48
  16.9000        20
  16.9500        31
  17.0000        31
  17.0500        29
  17.1000        38
  17.1500        35
  17.2000        29
  17.2500        23
  17.3000        27
  17.3500        25
  17.4000        23
  17.4500        32
  17.5000        28
  17.5500        28
  17.6000        30
  17.6500        35
  17.7000        24
  17.7500        30
  17.8000        20
  17.8500        28
  17.9000        32
  17.9500        27
  18.0000        27
  18.0500        25
  18.1000        30
  18.1500        32
  18.2000        33
  18.2500        28
  18.3000        23
  18.3500        28
  18.4000        22
  18.4500        30
  18.5000        31
  18.5500        32
  18.6000        30
  18.6500        21
  18.7000        31
  18.7500        32
  18.8000        25
  18.8500        34
  18.9000        35
  18.9500        33
  19.0000        41
  19.0500        18
  19.1000        32
  19.1500        33
  19.2000        28
  19.2500        32
  19.3000        35
  19.3500        25
  19.4000        29
  19.4500        29
  19.5000        43
  19.5500        38
  19.6000        18
  19.6500        25
  19.7000        32
  19.7500        30
  19.8000        25
  19.8500        30
  19.9000        29
  19.9500        34
  20.0000        29
  20.0500        28
  20.1000        29
  20.1500        37
  20.2000        25
  20.2500        24
  20.3000        23
  20.3500        32
  20.4000        34
  20.4500        29
  20.5000        32
  20.5500        35
  20.6000        34
  20.6500        35
  20.7000        28
  20.7500        27
  20.8000        22
  20.8500        28
  20.9000        23
  20.9500        27
  21.0000        27
  21.0500        34
  21.1000        32
  21.1500        35
  21.2000        41
  21.2500        35
  21.3000        33
  21.3500        30
  21.4000        31
  21.4500        23
  21.5000        29
  21.5500        32
  21.6000        33
  21.6500        33
  21.7000        21
  21.7500        34
  21.8000        31
  21.8500        24
  21.9000        37
  21.9500        27
  22.0000        27
  22.0500        28
  22.1000        34
  22.1500        23
  22.2000        35
  22.2500        32
  22.3000        30
  22.3500        32
  22.4000        40
  22.4500        29
  22.5000        37
  22.5500        26
  22.6000        29
  22.6500        40
  22.7000        25
  22.7500        34
  22.8000        19
  22.8500        34
  22.9000        46
  22.9500        25
  23.0000        21
  23.0500        34
  23.1000        36
  23.1500        39
  23.2000        27
  23.2500        20
  23.3000        30
  23.3500        39
  23.4000        25
  23.4500        33
  23.5000        37
  23.5500        25
  23.6000        31
  23.6500        37
  23.7000        26
  23.7500        37
  23.8000        38
  23.8500        31
  23.9000        47
  23.9500        25
  24.0000        34
  24.0500        30
  24.1000        45
  24.1500        31
  24.2000        26
  24.2500        38
  24.3000        28
  24.3500        27
  24.4000        38
  24.4500        29
  24.5000        30
  24.5500        27
  24.6000        31
  24.6500        22
  24.7000        30
  24.7500        32
  24.8000        25
  24.8500        36
  24.9000        27
  24.9500        36
  25.0000        31
  25.0500        33
  25.1000        27
  25.1500        27
  25.2000        37
  25.2500        29
  25.3000        14
  25.3500        25
  25.4000        27
  25.4500        29
  25.5000        24
  25.5500        25
  25.6000        34
  25.6500        29
  25.7000        23
  25.7500        26
  25.8000        30
  25.8500        30
  25.9000        25
  25.9500        31
  26.0000        22
  26.0500        21
  26.1000        27
  26.1500        28
  26.2000        28
  26.2500        28
  26.3000        31
  26.3500        27
  26.4000        30
  26.4500        25
  26.5000        35
  26.5500        29
  26.6000        18
  26.6500        28
  26.7000        27
  26.7500        25
  26.8000        29
  26.8500        32
  26.9000        29
  26.9500        24
  27.0000        26
  27.0500        30
  27.1000        22
  27.1500        27
  27.2000        23
  27.2500        30
  27.3000        25
  27.3500        21
  27.4000        24
  27.4500        30
  27.5000        23
  27.5500        22
  27.6000        25
  27.6500        29
  27.7000        22
  27.7500        39
  27.8000        18
  27.8500        24
  27.9000        21
  27.9500        19
  28.0000        29
  28.0500        22
  28.1000        23
  28.1500        31
  28.2000        14
  28.2500        18
  28.3000        24
  28.3500        24
  28.4000        26
  28.4500        50
  28.5000        38
  28.5500        35
  28.6000        46
  28.6500        17
  28.7000        16
  28.7500        27
  28.8000        24
  28.8500        15
  28.9000        20
  28.9500        25
  29.0000        20
  29.0500        26
  29.1000        24
  29.1500        22
  29.2000        18
  29.2500        24
  29.3000        21
  29.3500        27
  29.4000        24
  29.4500        23
  29.5000        20
  29.5500        29
  29.6000        15
  29.6500        21
  29.7000        24
  29.7500        22
  29.8000        23
  29.8500        22
  29.9000        12
  29.9500        22
  30.0000        22
  30.0500        25
  30.1000        33
  30.1500        31
  30.2000        17
  30.2500        23
  30.3000        27
  30.3500        20
  30.4000        28
  30.4500        23
  30.5000        22
  30.5500        30
  30.6000        20
  30.6500        33
  30.7000        19
  30.7500        21
  30.8000        18
  30.8500        18
  30.9000        17
  30.9500        19
  31.0000        17
  31.0500        31
  31.1000        19
  31.1500        13
  31.2000        16
  31.2500        22
  31.3000        13
  31.3500        25
  31.4000        22
  31.4500        30
  31.5000        27
  31.5500        21
  31.6000        19
  31.6500        16
  31.7000        23
  31.7500        12
  31.8000        23
  31.8500        20
  31.9000        22
  31.9500        15
  32.0000        29
  32.0500        25
  32.1000        18
  32.1500        28
  32.2000        18
  32.2500        20
  32.3000        24
  32.3500        26
  32.4000        22
  32.4500        23
  32.5000        12
  32.5500        16
  32.6000        22
  32.6500        24
  32.7000        29
  32.7500        24
  32.8000        22
  32.8500        19
  32.9000        21
  32.9500        19
  33.0000        19
  33.0500        19
  33.1000        17
  33.1500        15
  33.2000        25
  33.2500        19
  33.3000        16
  33.3500        24
  33.4000        20
  33.4500        17
  33.5000        26
  33.5500        13
  33.6000        19
  33.6500        20
  33.7000        17
  33.7500        22
  33.8000        19
  33.8500        16
  33.9000        16
  33.9500        19
  34.0000        25
  34.0500        21
  34.1000        17
  34.1500        17
  34.2000        14
  34.2500        19
  34.3000        29
  34.3500        21
  34.4000        18
  34.4500        20
  34.5000        21
  34.5500        23
  34.6000        24
  34.6500        28
  34.7000        28
  34.7500        22
  34.8000        26
  34.8500        23
  34.9000        20
  34.9500        22
  35.0000        25
  35.0500        18
  35.1000        17
  35.1500        16
  35.2000        24
  35.2500        20
  35.3000        17
  35.3500        16
  35.4000        18
  35.4500        26
  35.5000        26
  35.5500        20
  35.6000        21
  35.6500        14
  35.7000        21
  35.7500        13
  35.8000        19
  35.8500        15
  35.9000        22
  35.9500        16
  36.0000        19
  36.0500        20
  36.1000        24
  36.1500        24
  36.2000        23
  36.2500        15
  36.3000        22
  36.3500        18
  36.4000        13
  36.4500        12
  36.5000        13
  36.5500        20
  36.6000        20
  36.6500        14
  36.7000        23
  36.7500        19
  36.8000        20
  36.8500        18
  36.9000        16
  36.9500        22
  37.0000         9
  37.0500        21
  37.1000        18
  37.1500        18
  37.2000        16
  37.2500        17
  37.3000        18
  37.3500        16
  37.4000        15
  37.4500        17
  37.5000        11
  37.5500        24
  37.6000        23
  37.6500        21
  37.7000        15
  37.7500        22
  37.8000        16
  37.8500        22
  37.9000        22
  37.9500        19
  38.0000        15
  38.0500        18
  38.1000        18
  38.1500        25
  38.2000        19
  38.2500        25
  38.3000        14
  38.3500        23
  38.4000        13
  38.4500        13
  38.5000        18
  38.5500        25
  38.6000        25
  38.6500        27
  38.7000        12
  38.7500        17
  38.8000        21
  38.8500        11
  38.9000        15
  38.9500        27
  39.0000        16
  39.0500        19
  39.1000        16
  39.1500        22
  39.2000        19
  39.2500        16
  39.3000        26
  39.3500        25
  39.4000        20
  39.4500        17
  39.5000        16
  39.5500        22
  39.6000        23
  39.6500        23
  39.7000        13
  39.7500        20
  39.8000        13
  39.8500        17
  39.9000        23
  39.9500        16
  40.0000        15
  40.0500        19
  40.1000        15
  40.1500        27
  40.2000        21
  40.2500        20
  40.3000        25
  40.3500        18
  40.4000        14
  40.4500        19
  40.5000        24
  40.5500        21
  40.6000        24
  40.6500        17
  40.7000        12
  40.7500        22
  40.8000        28
  40.8500        19
  40.9000        19
  40.9500        22
  41.0000        21
  41.0500        25
  41.1000        14
  41.1500        30
  41.2000        21
  41.2500        26
  41.3000        33
  41.3500        36
  41.4000        31
  41.4500        49
  41.5000        82
  41.5500       182
  41.6000       461
  41.6500       648
  41.7000       740
  41.7500       748
  41.8000       557
  41.8500       310
  41.9000       165
  41.9500        71
  42.0000        35
  42.0500        30
  42.1000        29
  42.1500        19
  42.2000        20
  42.2500        24
  42.3000        18
  42.3500        24
  42.4000        24
  42.4500        18
  42.5000        19
  42.5500        20
  42.6000        18
  42.6500        18
  42.7000        19
  42.7500        10
  42.8000        19
  42.8500        16
  42.9000        18
  42.9500        16
  43.0000        22
  43.0500        17
  43.1000        14
  43.1500        22
  43.2000        14
  43.2500        24
  43.3000        18
  43.3500        14
  43.4000        19
  43.4500        20
  43.5000        18
  43.5500        14
  43.6000        13
  43.6500        18
  43.7000        15
  43.7500        18
  43.8000        17
  43.8500        18
  43.9000        14
  43.9500        23
  44.0000        13
  44.0500         9
  44.1000        20
  44.1500        10
  44.2000        15
  44.2500        21
  44.3000        24
  44.3500        15
  44.4000        17
  44.4500        25
  44.5000        22
  44.5500        22
  44.6000        16
  44.6500        20
  44.7000        21
  44.7500        10
  44.8000        17
  44.8500        20
  44.9000        21
  44.9500        14
  45.0000        14
  45.0500        20
  45.1000        26
  45.1500         9
  45.2000        21
  45.2500        18
  45.3000        18
  45.3500         9
  45.4000        13
  45.4500        14
  45.5000        21
  45.5500        17
  45.6000        17
  45.6500        16
  45.7000        11
  45.7500        14
  45.8000        13
  45.8500        14
  45.9000        15
  45.9500        14
  46.0000         7
  46.0500        24
  46.1000        20
  46.1500        11
  46.2000        14
  46.2500        21
  46.3000        24
  46.3500        12
  46.4000        16
  46.4500        15
  46.5000        21
  46.5500        11
  46.6000        15
  46.6500        15
  46.7000        16
  46.7500        13
  46.8000        18
  46.8500        21
  46.9000        17
  46.9500        13
  47.0000        16
  47.0500        12
  47.1000        18
  47.1500        18
  47.2000        23
  47.2500        11
  47.3000        15
  47.3500        19
  47.4000        22
  47.4500        12
  47.5000        12
  47.5500        14
  47.6000        10
  47.6500        15
  47.7000        16
  47.7500        16
  47.8000        13
  47.8500        17
  47.9000        18
  47.9500        17
  48.0000        19
  48.0500        15
  48.1000        16
  48.1500        21
  48.2000        21
  48.2500        27
  48.3000        31
  48.3500        73
  48.4000       172
  48.4500       283
  48.5000       386
  48.5500       407
  48.6000       304
  48.6500       259
  48.7000       164
  48.7500        89
  48.8000        41
  48.8500        23
  48.9000        25
  48.9500        20
  49.0000        16
  49.0500        19
  49.1000        17
  49.1500        21
  49.2000        24
  49.2500        19
  49.3000        19
  49.3500        16
  49.4000        14
  49.4500        10
  49.5000        24
  49.5500        19
  49.6000        27
  49.6500        19
  49.7000        18
  49.7500        18
  49.8000        14
  49.8500        13
  49.9000        16
  49.9500        14
  50.0000        10
  50.0500        10
  50.1000        13
  50.1500        18
  50.2000        16
  50.2500        17
  50.3000        14
  50.3500        20
  50.4000        14
  50.4500        19
  50.5000         9
  50.5500        10
  50.6000        20
  50.6500        13
  50.7000        18
  50.7500        19
  50.8000        17
  50.8500         9
  50.9000        12
  50.9500        18
  51.0000         6
  51.0500        15
  51.1000        18
  51.1500        25
  51.2000        10
  51.2500        18
  51.3000        19
  51.3500        22
  51.4000         9
  51.4500        10
  51.5000         8
  51.5500        14
  51.6000        16
  51.6500        12
  51.7000        18
  51.7500        12
  51.8000        17
  51.8500        21
  51.9000        14
  51.9500        10
  52.0000        12
  52.0500        12
  52.1000        19
  52.1500        14
  52.2000        16
  52.2500        14
  52.3000        15
  52.3500        13
  52.4000         7
  52.4500        14
  52.5000        16
  52.5500        17
  52.6000        16
  52.6500        13
  52.7000        10
  52.7500        13
  52.8000        16
  52.8500        24
  52.9000        18
  52.9500        16
  53.0000        17
  53.0500        16
  53.1000        19
  53.1500        12
  53.2000        21
  53.2500        13
  53.3000        12
  53.3500        14
  53.4000        13
  53.4500        16
  53.5000        13
  53.5500        17
  53.6000        15
  53.6500        17
  53.7000        12
  53.7500        17
  53.8000        22
  53.8500        13
  53.9000        11
  53.9500        10
  54.0000        16
  54.0500        12
  54.1000        17
  54.1500        11
  54.2000        14
  54.2500        14
  54.3000        19
  54.3500        15
  54.4000        11
  54.4500        12
  54.5000        13
  54.5500        16
  54.6000        10
  54.6500        18
  54.7000        15
  54.7500        15
  54.8000        25
  54.8500        17
  54.9000        15
  54.9500        33
  55.0000        18
  55.0500        14
  55.1000        11
  55.1500        18
  55.2000        18
  55.2500        12
  55.3000        19
  55.3500        16
  55.4000        11
  55.4500        16
  55.5000        17
  55.5500        22
  55.6000        13
  55.6500        15
  55.7000        17
  55.7500        17
  55.8000        22
  55.8500        20
  55.9000        15
  55.9500        14
  56.0000        12
  56.0500        18
  56.1000        13
  56.1500        14
  56.2000        16
  56.2500        17
  56.3000        15
  56.3500        14
  56.4000        14
  56.4500        11
  56.5000        17
  56.5500        15
  56.6000        18
  56.6500        16
  56.7000        16
  56.7500        18
  56.8000        16
  56.8500        15
  56.9000        12
  56.9500        11
  57.0000        16
  57.0500        12
  57.1000        16
  57.1500        15
  57.2000        14
  57.2500        18
  57.3000        19
  57.3500        16
  57.4000        14
  57.4500        16
  57.5000         8
  57.5500        10
  57.6000        15
  57.6500        15
  57.7000        16
  57.7500        19
  57.8000        17
  57.8500        15
  57.9000        18
  57.9500        12
  58.0000        12
  58.0500         9
  58.1000        13
  58.1500        14
  58.2000        15
  58.2500        14
  58.3000        15
  58.3500        17
  58.4000        13
  58.4500        19
  58.5000        16
  58.5500        13
  58.6000        11
  58.6500        10
  58.7000        17
  58.7500        16
  58.8000        18
  58.8500        11
  58.9000        22
  58.9500        11
  59.0000        27
  59.0500        14
  59.1000        20
  59.1500        21
  59.2000        13
  59.2500        13
  59.3000        14
  59.3500        21
  59.4000        23
  59.4500        14
  59.5000         8
  59.5500        18
  59.6000         9
  59.6500        15
  59.7000        18
  59.7500        11
  59.8000        10
  59.8500        19
  59.9000        18
  59.9500        24
  60.0000        10
  60.0500        23
  60.1000        14
  60.1500        11
  60.2000        11
  60.2500        14
  60.3000        11
  60.3500        12
  60.4000        20
  60.4500        20
  60.5000        14
  60.5500        12
  60.6000        16
  60.6500        13
  60.7000        17
  60.7500        18
  60.8000        17
  60.8500        19
  60.9000        21
  60.9500        16
  61.0000        21
  61.0500        15
  61.1000        16
  61.1500        16
  61.2000        14
  61.2500        17
  61.3000         9
  61.3500        24
  61.4000        15
  61.4500        17
  61.5000        11
  61.5500        15
  61.6000        17
  61.6500        15
  61.7000        21
  61.7500        16
  61.8000        13
  61.8500         8
  61.9000        15
  61.9500        15
  62.0000        16
  62.0500        11
  62.1000        16
  62.1500        13
  62.2000        10
  62.2500         7
  62.3000        20
  62.3500        18
  62.4000        15
  62.4500         9
  62.5000        16
  62.5500        15
  62.6000        16
  62.6500        14
  62.7000        10
  62.7500        12
  62.8000        14
  62.8500        13
  62.9000        20
  62.9500        18
  63.0000        16
  63.0500        19
  63.1000        14
  63.1500        11
  63.2000        26
  63.2500         7
  63.3000        12
  63.3500        14
  63.4000        25
  63.4500        14
  63.5000         9
  63.5500        18
  63.6000        13
  63.6500        16
  63.7000        20
  63.7500        13
  63.8000        18
  63.8500        13
  63.9000        15
  63.9500        22
  64.0000        16
  64.0500        15
  64.1000         9
  64.1500        14
  64.2000        11
  64.2500        22
  64.3000        13
  64.3500        22
  64.4000        24
  64.4500        14
  64.5000        18
  64.5500        12
  64.6000        17
  64.6500        24
  64.7000        16
  64.7500        16
  64.8000        18
  64.8500        15
  64.9000         9
  64.9500        15
  65.0000        19
  65.0500        17
  65.1000        22
  65.1500        12
  65.2000        13
  65.2500         8
  65.3000        13
  65.3500        16
  65.4000        18
  65.4500        19
  65.5000        17
  65.5500        14
  65.6000        14
  65.6500        13
  65.7000        15
  65.7500        15
  65.8000        14
  65.8500        18
  65.9000        19
  65.9500        16
  66.0000        16
  66.0500         8
  66.1000         8
  66.1500        12
  66.2000        18
  66.2500        13
  66.3000         7
  66.3500        11
  66.4000        17
  66.4500        15
  66.5000        16
  66.5500        17
  66.6000        11
  66.6500        14
  66.7000        18
  66.7500        15
  66.8000        11
  66.8500        15
  66.9000        11
  66.9500        11
  67.0000        22
  67.0500        18
  67.1000        21
  67.1500        12
  67.2000        16
  67.2500        15
  67.3000        10
  67.3500        25
  67.4000        13
  67.4500        16
  67.5000        17
  67.5500        11
  67.6000        15
  67.6500        20
  67.7000        21
  67.7500        15
  67.8000        10
  67.8500        16
  67.9000        18
  67.9500        11
  68.0000        18
  68.0500        16
  68.1000        13
  68.1500        18
  68.2000        18
  68.2500        13
  68.3000        21
  68.3500        10
  68.4000        12
  68.4500        16
  68.5000        13
  68.5500        21
  68.6000        16
  68.6500        24
  68.7000        17
  68.7500        10
  68.8000        15
  68.8500        13
  68.9000        14
  68.9500        14
  69.0000        22
  69.0500        12
  69.1000        15
  69.1500        23
  69.2000         8
  69.2500        12
  69.3000        17
  69.3500        13
  69.4000        23
  69.4500        15
  69.5000        12
  69.5500        11
  69.6000        11
  69.6500        12
  69.7000        10
  69.7500        28
  69.8000        10
  69.8500        18
  69.9000        17
  69.9500        22
  70.0000        15
  70.0500        11
  70.1000        16
  70.1500        18
  70.2000        16
  70.2500        11
  70.3000        15
  70.3500        15
  70.4000        18
  70.4500        16
  70.5000        17
  70.5500        21
  70.6000        20
  70.6500        33
  70.7000        25
  70.7500        21
  70.8000        42
  70.8500        36
  70.9000       118
  70.9500       170
  71.0000       211
  71.0500       190
  71.1000       171
  71.1500       165
  71.2000       131
  71.2500       103
  71.3000        70
  71.3500        41
  71.4000        21
  71.4500        26
  71.5000        12
  71.5500        16
  71.6000        11
  71.6500        17
  71.7000        12
  71.7500        20
  71.8000        13
  71.8500        12
  71.9000        10
  71.9500        20
  72.0000        11
  72.0500         8
  72.1000         8
  72.1500        13
  72.2000        12
  72.2500        15
  72.3000        21
  72.3500        11
  72.4000        15
  72.4500        12
  72.5000        10
  72.5500        16
  72.6000        13
  72.6500        14
  72.7000        14
  72.7500        11
  72.8000        19
  72.8500        12
  72.9000        11
  72.9500        11
  73.0000        19
  73.0500         6
  73.1000        14
  73.1500        10
  73.2000        17
  73.2500         8
  73.3000        17
  73.3500        17
  73.4000        19
  73.4500        21
  73.5000        10
  73.5500        16
  73.6000        17
  73.6500        16
  73.7000        12
  73.7500         8
  73.8000        12
  73.8500        21
  73.9000        15
  73.9500        20
  74.0000        14
  74.0500        10
  74.1000        19
  74.1500        10
  74.2000        15
  74.2500        25
  74.3000        19
  74.3500         9
  74.4000        16
  74.4500        13
  74.5000        11
  74.5500        13
  74.6000        20
  74.6500        11
  74.7000        12
  74.7500        15
  74.8000        17
  74.8500        15
  74.9000        13
  74.9500        17
  75.0000        14
  75.0500        18
  75.1000        23
  75.1500        20
  75.2000        20
  75.2500        10
  75.3000        16
  75.3500        16
  75.4000        13
  75.4500        16
  75.5000        14
  75.5500        11
  75.6000        11
  75.6500         9
  75.7000        13
  75.7500         9
  75.8000        17
  75.8500        16
  75.9000        22
  75.9500        19
  76.0000         9
  76.0500        23
  76.1000        14
  76.1500        10
  76.2000         8
  76.2500        15
  76.3000        13
  76.3500         8
  76.4000        15
  76.4500        11
  76.5000        14
  76.5500        17
  76.6000        18
  76.6500        19
  76.7000         7
  76.7500        24
  76.8000        11
  76.8500        22
  76.9000        14
  76.9500        20
  77.0000        14
  77.0500        19
  77.1000        15
  77.1500         9
  77.2000        13
  77.2500         9
  77.3000        14
  77.3500        11
  77.4000        13
  77.4500         6
  77.5000        22
  77.5500        10
  77.6000        20
  77.6500        11
  77.7000        13
  77.7500        11
  77.8000        18
  77.8500        16
  77.9000        18
  77.9500        14
  78.0000        16
  78.0500         9
  78.1000        16
  78.1500        15
  78.2000         9
  78.2500         5
  78.3000        15
  78.3500         9
  78.4000        14
  78.4500        17
  78.5000        12
  78.5500        19
  78.6000        14
  78.6500        12
  78.7000        18
  78.7500        13
  78.8000        18
  78.8500        20
  78.9000        17
  78.9500        21
  79.0000        20
  79.0500        17
  79.1000        11
  79.1500        17
  79.2000        13
  79.2500        17
  79.3000         9
  79.3500        16
  79.4000        21
  79.4500        18
  79.5000        14
  79.5500        25
  79.6000        14
  79.6500        14
  79.7000        19
  79.7500        16
  79.8000        11
  79.8500        11
  79.9000        14
  79.9500        15
  80.0000        16
  80.0500        15
  80.1000        10
  80.1500        12
  80.2000        10
  80.2500        13
  80.3000        23
  80.3500        11
  80.4000        10
  80.4500        11
  80.5000        11
  80.5500        12
  80.6000        10
  80.6500        12
  80.7000        15
  80.7500        14
  80.8000        22
  80.8500        11
  80.9000        12
  80.9500         8
  81.0000        15
  81.0500         7
  81.1000         8
  81.1500        18
  81.2000        15
  81.2500        14
  81.3000        12
  81.3500         9
  81.4000        11
  81.4500        21
  81.5000        13
  81.5500        12
  81.6000        15
  81.6500        15
  81.7000        16
  81.7500        21
  81.8000        19
  81.8500        15
  81.9000        13
  81.9500        16
  82.0000        11
  82.0500        14
  82.1000         9
  82.1500        15
  82.2000        13
  82.2500        13
  82.3000        16
  82.3500        11
  82.4000        20
  82.4500        18
  82.5000        13
  82.5500        14
  82.6000        22
  82.6500        10
  82.7000        18
  82.7500        14
  82.8000        10
  82.8500        16
  82.9000         8
  82.9500        15
  83.0000        10
  83.0500        15
  83.1000        14
  83.1500        19
  83.2000         8
  83.2500         8
  83.3000        15
  83.3500        17
  83.4000        11
  83.4500         7
  83.5000        15
  83.5500        15
  83.6000        13
  83.6500        16
  83.7000        12
  83.7500         8
  83.8000         6
  83.8500        13
  83.9000        14
  83.9500        21
  84.0000        12
  84.0500        15
  84.1000        16
  84.1500        29
  84.2000        15
  84.2500        14
  84.3000        16
  84.3500        21
  84.4000         7
  84.4500        11
  84.5000        22
  84.5500        11
  84.6000        13
  84.6500        12
  84.7000         7
  84.7500        23
  84.8000        24
  84.8500        22
  84.9000        13
  84.9500        13
  85.0000        23
  85.0500        13
  85.1000        19
  85.1500         8
  85.2000        15
  85.2500        20
  85.3000        18
  85.3500        18
  85.4000        21
  85.4500        16
  85.5000        13
  85.5500        16
  85.6000        33
  85.6500        41
  85.7000        99
  85.7500       169
  85.8000       268
  85.8500       272
  85.9000       212
  85.9500       140
  86.0000       140
  86.0500       138
  86.1000       141
  86.1500       122
  86.2000        74
  86.2500        43
  86.3000        33
  86.3500        21
  86.4000        26
  86.4500        26
  86.5000        19
  86.5500        12
  86.6000        16
  86.6500        11
  86.7000        14
  86.7500         8
  86.8000        14
  86.8500        12
  86.9000         9
  86.9500        15
  87.0000        14
  87.0500        12
  87.1000         7
  87.1500        17
  87.2000         9
  87.2500        12
  87.3000        17
  87.3500         9
  87.4000         6
  87.4500        14
  87.5000        15
  87.5500        12
  87.6000         8
  87.6500        20
  87.7000        14
  87.7500         5
  87.8000         8
  87.8500        13
  87.9000        15
  87.9500        18
  88.0000        17
  88.0500        18
  88.1000        11
  88.1500         7
  88.2000        11
  88.2500        20
  88.3000        16
  88.3500        16
  88.4000        18
  88.4500         9
  88.5000        16
  88.5500        16
  88.6000        12
  88.6500        10
  88.7000        14
  88.7500        14
  88.8000         9
  88.8500        12
  88.9000        13
  88.9500        16
  89.0000        16
  89.0500        11
  89.1000         8
  89.1500        15
  89.2000        18
  89.2500         5
  89.3000        11
  89.3500         9
  89.4000         9
  89.4500        13
  89.5000        12
  89.5500        18
  89.6000        10
  89.6500        18
  89.7000        15
  89.7500        14
  89.8000        15
  89.8500        12
  89.9000        12
  89.9500        17
  90.0000        10
  90.0500         8
  90.1000        29
  90.1500        12
  90.2000        11
  90.2500        17
  90.3000        16
  90.3500        14
  90.4000         8
  90.4500        24
  90.5000        30
  90.5500        52
  90.6000        66
  90.6500        75
  90.7000        88
  90.7500        44
  90.8000        31
  90.8500        39
  90.9000        47
  90.9500        38
  91.0000        55
  91.0500        27
  91.1000        24
  91.1500        17
  91.2000        13
  91.2500        16
  91.3000        14
  91.3500        10
  91.4000        16
  91.4500        17
  91.5000        17
  91.5500        10
  91.6000         8
  91.6500        12
  91.7000        18
  91.7500        16
  91.8000        16
  91.8500        10
  91.9000        13
  91.9500        20
  92.0000        13
  92.0500        12
  92.1000        21
  92.1500        16
  92.2000        15
  92.2500        18
  92.3000        18
  92.3500        10
  92.4000        14
  92.4500        10
  92.5000        15
  92.5500        12
  92.6000        12
  92.6500        15
  92.7000        17
  92.7500        17
  92.8000        18
  92.8500        18
  92.9000         9
  92.9500        10
  93.0000         9
  93.0500        20
  93.1000        16
  93.1500        16
  93.2000        16
  93.2500        10
  93.3000        13
  93.3500        16
  93.4000         6
  93.4500         5
  93.5000        21
  93.5500        13
  93.6000         8
  93.6500         9
  93.7000        16
  93.7500        20
  93.8000        12
  93.8500        16
  93.9000        16
  93.9500        13
  94.0000        14
  94.0500         8
  94.1000        12
  94.1500        11
  94.2000         7
  94.2500         8
  94.3000        10
  94.3500         7
  94.4000        12
  94.4500        11
  94.5000         7
  94.5500        10
  94.6000         9
  94.6500        10
  94.7000        15
  94.7500        10
  94.8000        16
  94.8500        12
  94.9000        13
  94.9500        12
  95.0000        10
  95.0500        14
  95.1000         9
  95.1500         4
  95.2000         9
  95.2500        10
  95.3000        15
  95.3500        14
  95.4000        12
  95.4500        16
  95.5000        14
  95.5500        12
  95.6000        16
  95.6500        17
  95.7000         8
  95.7500        15
  95.8000         9
  95.8500        13
  95.9000        16
  95.9500        12
  96.0000        11
  96.0500        16
  96.1000        15
  96.1500         9
  96.2000        16
  96.2500        14
  96.3000        11
  96.3500        14
  96.4000        16
  96.4500        11
  96.5000        17
  96.5500        12
  96.6000         9
  96.6500        11
  96.7000        14
  96.7500        12
  96.8000        11
  96.8500        12
  96.9000        10
  96.9500         8
  97.0000        11
  97.0500        10
  97.1000        17
  97.1500        13
  97.2000        19
  97.2500        16
  97.3000        10
  97.3500        16
  97.4000        16
  97.4500        12
  97.5000        10
  97.5500        11
  97.6000        19
  97.6500         8
  97.7000        15
  97.7500         9
  97.8000        10
  97.8500         9
  97.9000        13
  97.9500        12
  98.0000        17
  98.0500        10
  98.1000        13
  98.1500        14
  98.2000        20
  98.2500        12
  98.3000         9
  98.3500        11
  98.4000        11
  98.4500        20
  98.5000         9
  98.5500        10
  98.6000        10
  98.6500        12
  98.7000        16
  98.7500        13
  98.8000         9
  98.8500         9
  98.9000        14
  98.9500        14
  99.0000        13
  99.0500        17
  99.1000        11
  99.1500        18
  99.2000         5
  99.2500        11
  99.3000        11
  99.3500        15
  99.4000         8
  99.4500        16
  99.5000         9
  99.5500        10
  99.6000         7
  99.6500        20
  99.7000         9
  99.7500        12
  99.8000         9
  99.8500        10
  99.9000        19
  99.9500        18
 100.0000        16
 100.0500        16
 100.1000        18
 100.1500        12
 100.2000        15
 100.2500        12
 100.3000        10
 100.3500        12
 100.4000        20
 100.4500        17
 100.5000        11
 100.5500         8
 100.6000        14
 100.6500        11
 100.7000         8
 100.7500        11
 100.8000        15
 100.8500        13
 100.9000        12
 100.9500         6
 101.0000        17
 101.0500        13
 101.1000         6
 101.1500        17
 101.2000         9
 101.2500        16
 101.3000        18
 101.3500        19
 101.4000        12
 101.4500        10
 101.5000        19
 101.5500        11
 101.6000        16
 101.6500         6
 101.7000        19
 101.7500        16
 101.8000        17
 101.8500         7
 101.9000        13
 101.9500        13
 102.0000        10
 102.0500        16
 102.1000        12
 102.1500        15
 102.2000        13
 102.2500        13
 102.3000        12
 102.3500        13
 102.4000        12
 102.4500         8
 102.5000        11
 102.5500        17
 102.6000        14
 102.6500        21
 102.7000         8
 102.7500        10
 102.8000        17
 102.8500         8
 102.9000        12
 102.9500         7
 103.0000         6
 103.0500        10
 103.1000        16
 103.1500        15
 103.2000        15
 103.2500        15
 103.3000        18
 103.3500        16
 103.4000        13
 103.4500        25
 103.5000        13
 103.5500         7
 103.6000        10
 103.6500         7
 103.7000        12
 103.7500        16
 103.8000        11
 103.8500         7
 103.9000        25
 103.9500         7
 104.0000        23
 104.0500        11
 104.1000        15
 104.1500        10
 104.2000        13
 104.2500         9
 104.3000        15
 104.3500        12
 104.4000        13
 104.4500        11
 104.5000        15
 104.5500        12
 104.6000        16
 104.6500        11
 104.7000        14
 104.7500        16
 104.8000        11
 104.8500        10
 104.9000        11
 104.9500        15
 105.0000        14
 105.0500        12
 105.1000        20
 105.1500        14
 105.2000        10
 105.2500        17
 105.3000         7
 105.3500        14
 105.4000        12
 105.4500        11
 105.5000        10
 105.5500        20
 105.6000        13
 105.6500         9
 105.7000        12
 105.7500         8
 105.8000        10
 105.8500        13
 105.9000        18
 105.9500         9
 106.0000         9
 106.0500        14
 106.1000        10
 106.1500        16
 106.2000        14
 106.2500        10
 106.3000        16
 106.3500        13
 106.4000        15
 106.4500        13
 106.5000        12
 106.5500         9
 106.6000        16
 106.6500         7
 106.7000        11
 106.7500        12
 106.8000        12
 106.8500         7
 106.9000        17
 106.9500        13
 107.0000        15
 107.0500        10
 107.1000        13
 107.1500        13
 107.2000        15
 107.2500        17
 107.3000        14
 107.3500        15
 107.4000        11
 107.4500        13
 107.5000        12
 107.5500        15
 107.6000        16
 107.6500         8
 107.7000        14
 107.7500        14
 107.8000        15
 107.8500        20
 107.9000        12
 107.9500        10
 108.0000        14
 108.0500        12
 108.1000        19
 108.1500         6
 108.2000         9
 108.2500        23
 108.3000        16
 108.3500        11
 108.4000         9
 108.4500         8
 108.5000        19
 108.5500        14
 108.6000        19
 108.6500        17
 108.7000        16
 108.7500        13
 108.8000        13
 108.8500         9
 108.9000        18
 108.9500        20
 109.0000        21
 109.0500        17
 109.1000        15
 109.1500        12
 109.2000        13
 109.2500        16
 109.3000        12
 109.3500        14
 109.4000        13
 109.4500        10
 109.5000        12
 109.5500        20
 109.6000        11
 109.6500        13
 109.7000        17
 109.7500        23
 109.8000        13
 109.8500        13
 109.9000        18
 109.9500        14
 110.0000        14
