  10.0000        28
  10.0500        28
  10.1000        15
  10.1500        30
  10.2000        24
  10.2500        36
  10.3000        28
  10.3500        26
  10.4000        19
  10.4500        22
  10.5000        19
  10.5500        21
  10.6000        18
  10.6500        21
  10.7000        14
  10.7500        24
  10.8000        24
  10.8500        16
  10.9000        19
  10.9500        22
  11.0000        19
  11.0500        12
  11.1000        14
  11.1500        21
  11.2000        22
  11.2500        22
  11.3000        13
  11.3500        13
  11.4000        24
  11.4500        14
  11.5000        25
  11.5500        19
  11.6000        24
  11.6500        14
  11.7000        17
  11.7500        20
  11.8000        16
  11.8500        17
  11.9000        11
  11.9500        20
  12.0000        24
  12.0500        20
  12.1000        13
  12.1500        18
  12.2000        19
  12.2500        18
  12.3000        21
  12.3500        12
  12.4000        21
  12.4500        20
  12.5000        18
  12.5500        14
  12.6000        17
  12.6500        27
  12.7000        16
  12.7500        18
  12.8000        17
  12.8500        17
  12.9000        18
  12.9500        16
  13.0000        10
  13.0500        18
  13.1000        18
  13.1500        19
  13.2000        17
  13.2500        12
  13.3000        13
  13.3500        19
  13.4000        15
  13.4500        22
  13.5000        17
  13.5500         9
  13.6000        10
  13.6500        19
  13.7000        17
  13.7500        11
  13.8000        15
  13.8500        12
  13.9000        14
  13.9500        12
  14.0000        13
  14.0500        17
  14.1000        17
  14.1500        19
  14.2000         7
  14.2500        22
  14.3000        13
  14.3500        14
  14.4000        18
  14.4500        20
  14.5000        11
  14.5500        12
  14.6000        15
  14.6500        10
  14.7000        17
  14.7500        16
  14.8000        12
  14.8500        14
  14.9000         8
  14.9500        18
  15.0000        10
  15.0500        22
  15.1000        18
  15.1500        13
  15.2000        11
  15.2500        14
  15.3000        18
  15.3500        10
  15.4000        17
  15.4500        14
  15.5000        17
  15.5500        14
  15.6000         9
  15.6500        13
  15.7000        18
  15.7500        10
  15.8000        18
  15.8500         9
  15.9000        18
  15.9500         9
  16.0000        15
  16.0500        26
  16.1000        11
  16.1500        13
  16.2000        12
  16.2500        20
  16.3000        10
  16.3500        17
  16.4000        10
  16.4500        12
  16.5000        15
  16.5500        10
  16.6000        15
  16.6500        12
  16.7000        14
  16.7500        15
  16.8000        16
  16.8500        16
  16.9000        20
  16.9500        21
  17.0000        14
  17.0500        17
  17.1000        14
  17.1500        16
  17.2000        13
  17.2500        14
  17.3000        18
  17.3500         6
  17.4000        16
  17.4500        13
  17.5000        19
  17.5500        17
  17.6000        12
  17.6500        16
  17.7000        11
  17.7500        13
  17.8000        14
  17.8500         9
  17.9000        12
  17.9500        16
  18.0000        16
  18.0500        20
  18.1000        15
  18.1500        12
  18.2000        13
  18.2500        13
  18.3000        18
  18.3500        12
  18.4000        12
  18.4500        15
  18.5000        13
  18.5500        22
  18.6000        13
  18.6500        13
  18.7000        17
  18.7500         8
  18.8000        16
  18.8500        16
  18.9000        19
  18.9500        13
  19.0000        11
  19.0500        10
  19.1000        14
  19.1500        14
  19.2000        15
  19.2500        13
  19.3000        11
  19.3500        17
  19.4000        18
  19.4500        15
  19.5000        11
  19.5500         9
  19.6000        14
  19.6500        11
  19.7000        19
  19.7500        13
  19.8000        14
  19.8500        16
  19.9000        15
  19.9500        16
  20.0000        20
  20.0500        16
  20.1000        16
  20.1500        11
  20.2000        12
  20.2500        20
  20.3000        15
  20.3500         7
  20.4000        17
  20.4500        16
  20.5000        14
  20.5500        25
  20.6000        15
  20.6500        18
  20.7000        10
  20.7500        18
  20.8000        12
  20.8500        12
  20.9000        11
  20.9500        20
  21.0000        12
  21.0500        19
  21.1000        10
  21.1500        13
  21.2000        14
  21.2500        15
  21.3000        13
  21.3500        13
  21.4000        12
  21.4500         9
  21.5000        20
  21.5500        20
  21.6000        16
  21.6500        16
  21.7000        15
  21.7500        16
  21.8000        13
  21.8500        21
  21.9000        22
  21.9500        12
  22.0000        10
  22.0500        17
  22.1000        19
  22.1500        11
  22.2000        17
  22.2500        20
  22.3000        11
  22.3500        10
  22.4000        18
  22.4500         8
  22.5000        16
  22.5500        13
  22.6000        16
  22.6500        18
  22.7000        19
  22.7500        16
  22.8000        12
  22.8500        19
  22.9000        19
  22.9500        12
  23.0000        16
  23.0500        21
  23.1000        17
  23.1500        10
  23.2000        20
  23.2500        20
  23.3000        13
  23.3500        19
  23.4000        28
  23.4500        35
  23.5000        56
  23.5500        75
  23.6000       125
  23.6500       193
  23.7000       207
  23.7500       214
  23.8000       158
  23.8500       108
  23.9000        77
  23.9500        38
  24.0000        18
  24.0500        21
  24.1000        28
  24.1500         9
  24.2000        14
  24.2500        24
  24.3000        17
  24.3500        16
  24.4000         8
  24.4500        15
  24.5000        17
  24.5500        10
  24.6000        15
  24.6500        16
  24.7000        13
  24.7500        16
  24.8000         7
  24.8500        17
  24.9000        16
  24.9500        15
  25.0000        16
  25.0500        14
  25.1000        15
  25.1500        15
  25.2000        11
  25.2500        14
  25.3000         9
  25.3500        16
  25.4000        14
  25.4500        13
  25.5000        12
  25.5500        17
  25.6000        10
  25.6500        15
  25.7000        15
  25.7500        11
  25.8000        14
  25.8500        13
  25.9000        14
  25.9500        24
  26.0000        16
  26.0500        15
  26.1000        18
  26.1500        12
  26.2000         9
  26.2500        14
  26.3000        15
  26.3500        15
  26.4000        16
  26.4500        11
  26.5000        14
  26.5500        12
  26.6000        16
  26.6500        15
  26.7000        17
  26.7500        12
  26.8000         8
  26.8500         8
  26.9000        11
  26.9500        15
  27.0000         9
  27.0500        11
  27.1000        17
  27.1500        16
  27.2000        12
  27.2500        14
  27.3000        21
  27.3500        14
  27.4000         9
  27.4500        13
  27.5000        13
  27.5500         6
  27.6000        13
  27.6500        11
  27.7000        14
  27.7500        13
  27.8000        16
  27.8500        12
  27.9000        15
  27.9500        14
  28.0000        15
  28.0500        12
  28.1000        14
  28.1500        11
  28.2000        13
  28.2500         8
  28.3000        11
  28.3500        15
  28.4000        18
  28.4500        20
  28.5000        14
  28.5500        13
  28.6000        13
  28.6500        19
  28.7000        13
  28.7500         9
  28.8000        14
  28.8500        11
  28.9000        13
  28.9500        12
  29.0000        14
  29.0500         7
  29.1000        12
  29.1500        22
  29.2000        12
  29.2500        14
  29.3000        17
  29.3500        16
  29.4000        13
  29.4500        11
  29.5000        14
  29.5500        15
  29.6000        23
  29.6500        18
  29.7000        14
  29.7500        10
  29.8000        10
  29.8500        13
  29.9000        13
  29.9500        13
  30.0000         7
  30.0500        21
  30.1000        11
  30.1500        15
  30.2000        17
  30.2500        17
  30.3000        11
  30.3500        15
  30.4000         8
  30.4500        12
  30.5000        16
  30.5500        10
  30.6000        12
  30.6500        17
  30.7000        11
  30.7500        15
  30.8000        18
  30.8500        10
  30.9000         9
  30.9500        13
  31.0000        14
  31.0500        11
  31.1000        14
  31.1500        10
  31.2000        18
  31.2500        12
  31.3000         6
  31.3500         4
  31.4000        20
  31.4500        16
  31.5000        14
  31.5500        11
  31.6000        17
  31.6500        21
  31.7000        10
  31.7500        13
  31.8000         9
  31.8500         9
  31.9000        19
  31.9500        11
  32.0000        14
  32.0500        16
  32.1000         7
  32.1500        16
  32.2000        19
  32.2500        11
  32.3000        12
  32.3500        14
  32.4000        10
  32.4500        14
  32.5000        15
  32.5500        14
  32.6000        11
  32.6500        17
  32.7000        11
  32.7500        12
  32.8000        17
  32.8500        13
  32.9000        19
  32.9500        17
  33.0000        17
  33.0500        20
  33.1000        19
  33.1500        22
  33.2000        12
  33.2500        14
  33.3000        21
  33.3500        20
  33.4000        24
  33.4500        31
  33.5000        33
  33.5500        58
  33.6000        72
  33.6500       113
  33.7000       191
  33.7500       272
  33.8000       316
  33.8500       291
  33.9000       208
  33.9500       163
  34.0000        97
  34.0500        56
  34.1000        27
  34.1500        22
  34.2000        19
  34.2500        20
  34.3000        16
  34.3500        23
  34.4000        14
  34.4500        18
  34.5000         9
  34.5500        15
  34.6000        14
  34.6500        16
  34.7000        13
  34.7500        20
  34.8000        15
  34.8500        16
  34.9000        12
  34.9500         9
  35.0000        19
  35.0500         8
  35.1000        22
  35.1500         8
  35.2000        14
  35.2500        15
  35.3000        15
  35.3500        12
  35.4000        15
  35.4500        17
  35.5000        19
  35.5500        19
  35.6000        11
  35.6500        13
  35.7000        14
  35.7500         6
  35.8000        10
  35.8500        10
  35.9000         9
  35.9500        12
  36.0000        12
  36.0500        10
  36.1000        19
  36.1500        14
  36.2000         8
  36.2500        12
  36.3000        18
  36.3500        20
  36.4000        12
  36.4500        17
  36.5000        21
  36.5500        14
  36.6000        17
  36.6500        16
  36.7000        15
  36.7500        13
  36.8000        19
  36.8500        11
  36.9000        12
  36.9500         7
  37.0000        11
  37.0500        16
  37.1000        21
  37.1500        14
  37.2000        15
  37.2500        19
  37.3000        14
  37.3500        11
  37.4000        13
  37.4500        14
  37.5000        17
  37.5500        16
  37.6000        10
  37.6500        18
  37.7000         7
  37.7500        14
  37.8000        11
  37.8500         7
  37.9000        10
  37.9500        14
  38.0000        11
  38.0500         7
  38.1000        18
  38.1500        21
  38.2000         6
  38.2500        11
  38.3000        11
  38.3500        12
  38.4000        12
  38.4500        15
  38.5000        21
  38.5500        13
  38.6000        15
  38.6500        18
  38.7000        17
  38.7500        15
  38.8000        16
  38.8500        16
  38.9000        17
  38.9500        19
  39.0000        11
  39.0500        16
  39.1000        12
  39.1500        13
  39.2000         7
  39.2500        12
  39.3000        13
  39.3500        16
  39.4000        15
  39.4500        13
  39.5000        17
  39.5500        23
  39.6000        12
  39.6500        19
  39.7000         5
  39.7500        10
  39.8000        22
  39.8500        20
  39.9000         5
  39.9500        14
  40.0000        22
  40.0500         6
  40.1000         8
  40.1500        17
  40.2000        12
  40.2500        16
  40.3000        16
  40.3500        21
  40.4000        18
  40.4500        14
  40.5000        19
  40.5500        22
  40.6000        26
  40.6500        11
  40.7000        25
  40.7500        20
  40.8000        24
  40.8500        22
  40.9000        20
  40.9500        23
  41.0000        28
  41.0500        23
  41.1000        23
  41.1500        26
  41.2000        13
  41.2500        36
  41.3000        37
  41.3500        39
  41.4000        44
  41.4500        73
  41.5000       131
  41.5500       234
  41.6000       537
  41.6500       906
  41.7000      1122
  41.7500      1195
  41.8000       939
  41.8500       605
  41.9000       372
  41.9500       155
  42.0000        87
  42.0500        43
  42.1000        40
  42.1500        23
  42.2000        16
  42.2500        32
  42.3000        15
  42.3500        25
  42.4000        18
  42.4500        28
  42.5000        17
  42.5500        23
  42.6000        13
  42.6500        15
  42.7000        16
  42.7500        14
  42.8000        14
  42.8500        11
  42.9000        23
  42.9500        17
  43.0000        14
  43.0500        12
  43.1000        23
  43.1500        10
  43.2000        14
  43.2500        13
  43.3000        21
  43.3500         8
  43.4000        16
  43.4500        12
  43.5000        19
  43.5500        14
  43.6000        15
  43.6500        15
  43.7000        12
  43.7500        12
  43.8000        17
  43.8500        15
  43.9000        16
  43.9500         9
  44.0000         5
  44.0500        14
  44.1000        13
  44.1500        21
  44.2000        15
  44.2500        14
  44.3000        14
  44.3500        18
  44.4000        15
  44.4500        16
  44.5000        14
  44.5500        21
  44.6000        13
  44.6500        21
  44.7000         9
  44.7500        13
  44.8000        10
  44.8500        11
  44.9000        16
  44.9500         9
  45.0000         9
  45.0500         8
  45.1000        18
  45.1500        12
  45.2000         9
  45.2500        17
  45.3000        17
  45.3500         5
  45.4000        12
  45.4500        11
  45.5000        13
  45.5500        16
  45.6000        22
  45.6500        19
  45.7000         7
  45.7500         9
  45.8000        13
  45.8500         7
  45.9000        11
  45.9500        13
  46.0000        10
  46.0500        22
  46.1000        12
  46.1500         9
  46.2000        10
  46.2500        17
  46.3000        16
  46.3500        11
  46.4000         7
  46.4500        16
  46.5000         9
  46.5500         9
  46.6000        14
  46.6500         6
  46.7000        11
  46.7500         7
  46.8000        11
  46.8500         9
  46.9000        20
  46.9500        13
  47.0000        12
  47.0500        20
  47.1000        16
  47.1500         8
  47.2000         8
  47.2500        10
  47.3000         5
  47.3500        13
  47.4000        17
  47.4500        12
  47.5000        12
  47.5500        10
  47.6000        13
  47.6500        12
  47.7000        12
  47.7500        13
  47.8000        16
  47.8500        12
  47.9000        18
  47.9500        14
  48.0000        16
  48.0500        22
  48.1000        17
  48.1500        16
  48.2000        24
  48.2500        34
  48.3000        51
  48.3500        81
  48.4000       157
  48.4500       289
  48.5000       396
  48.5500       457
  48.6000       398
  48.6500       294
  48.7000       225
  48.7500       123
  48.8000        91
  48.8500        39
  48.9000        24
  48.9500        20
  49.0000        24
  49.0500        22
  49.1000        19
  49.1500        12
  49.2000        12
  49.2500        13
  49.3000        10
  49.3500        15
  49.4000        22
  49.4500        13
  49.5000        14
  49.5500        11
  49.6000        12
  49.6500        13
  49.7000        10
  49.7500        17
  49.8000         5
  49.8500        12
  49.9000        19
  49.9500         9
  50.0000         6
  50.0500        13
  50.1000        16
  50.1500        15
  50.2000        16
  50.2500        13
  50.3000        11
  50.3500        11
  50.4000         6
  50.4500        13
  50.5000        10
  50.5500        10
  50.6000        11
  50.6500         6
  50.7000        11
  50.7500        21
  50.8000         6
  50.8500        12
  50.9000        13
  50.9500         6
  51.0000         6
  51.0500        17
  51.1000        12
  51.1500        11
  51.2000         9
  51.2500         9
  51.3000        12
  51.3500         7
  51.4000        12
  51.4500        16
  51.5000        17
  51.5500        10
  51.6000        18
  51.6500        10
  51.7000        17
  51.7500        11
  51.8000         8
  51.8500         9
  51.9000        14
  51.9500        14
  52.0000         7
  52.0500         8
  52.1000        13
  52.1500        14
  52.2000        14
  52.2500        18
  52.3000        14
  52.3500         6
  52.4000        11
  52.4500        14
  52.5000         9
  52.5500        10
  52.6000         8
  52.6500        12
  52.7000        16
  52.7500         8
  52.8000        17
  52.8500        13
  52.9000         9
  52.9500        11
  53.0000        14
  53.0500        14
  53.1000        14
  53.1500        12
  53.2000        14
  53.2500         9
  53.3000        11
  53.3500        11
  53.4000         8
  53.4500        15
  53.5000        11
  53.5500        12
  53.6000         9
  53.6500         7
  53.7000        14
  53.7500        10
  53.8000        10
  53.8500        10
  53.9000         7
  53.9500        13
  54.0000        14
  54.0500         9
  54.1000        19
  54.1500        19
  54.2000        13
  54.2500        13
  54.3000        15
  54.3500        22
  54.4000        19
  54.4500        21
  54.5000        26
  54.5500        52
  54.6000        91
  54.6500       110
  54.7000       163
  54.7500       129
  54.8000       111
  54.8500        88
  54.9000        69
  54.9500        74
  55.0000        45
  55.0500        22
  55.1000        24
  55.1500        14
  55.2000        18
  55.2500        13
  55.3000        20
  55.3500        17
  55.4000        13
  55.4500        10
  55.5000         7
  55.5500        16
  55.6000         8
  55.6500        19
  55.7000         9
  55.7500        14
  55.8000        14
  55.8500        12
  55.9000        10
  55.9500        11
  56.0000        14
  56.0500        13
  56.1000         8
  56.1500         9
  56.2000        17
  56.2500        17
  56.3000        13
  56.3500        10
  56.4000        14
  56.4500        11
  56.5000        14
  56.5500        16
  56.6000         6
  56.6500        12
  56.7000        12
  56.7500        12
  56.8000        10
  56.8500        11
  56.9000        13
  56.9500        12
  57.0000        14
  57.0500         8
  57.1000        10
  57.1500        12
  57.2000        13
  57.2500        15
  57.3000        12
  57.3500         6
  57.4000        11
  57.4500         7
  57.5000         9
  57.5500        15
  57.6000        20
  57.6500        16
  57.7000         7
  57.7500        15
  57.8000        13
  57.8500         6
  57.9000        11
  57.9500        14
  58.0000        14
  58.0500         7
  58.1000         8
  58.1500        11
  58.2000         5
  58.2500         9
  58.3000         9
  58.3500        10
  58.4000        22
  58.4500        11
  58.5000         8
  58.5500         9
  58.6000        11
  58.6500        14
  58.7000        14
  58.7500        10
  58.8000         3
  58.8500        12
  58.9000         7
  58.9500        10
  59.0000        14
  59.0500        14
  59.1000         4
  59.1500        12
  59.2000        12
  59.2500        13
  59.3000        14
  59.3500         7
  59.4000         8
  59.4500         9
  59.5000         8
  59.5500        13
  59.6000        12
  59.6500        12
  59.7000         9
  59.7500        12
  59.8000        10
  59.8500        12
  59.9000         8
  59.9500         7
  60.0000        13
  60.0500        18
  60.1000        17
  60.1500        14
  60.2000        17
  60.2500        24
  60.3000        50
  60.3500        68
  60.4000        93
  60.4500        99
  60.5000       105
  60.5500        78
  60.6000        70
  60.6500        59
  60.7000        40
  60.7500        28
  60.8000        11
  60.8500        14
  60.9000        13
  60.9500        18
  61.0000        14
  61.0500         9
  61.1000        11
  61.1500        18
  61.2000         9
  61.2500        15
  61.3000        10
  61.3500         9
  61.4000        10
  61.4500        10
  61.5000        15
  61.5500        12
  61.6000         9
  61.6500         7
  61.7000        18
  61.7500        20
  61.8000        19
  61.8500        18
  61.9000         6
  61.9500         6
  62.0000        14
  62.0500        13
  62.1000        12
  62.1500         7
  62.2000        14
  62.2500        18
  62.3000        14
  62.3500        12
  62.4000        14
  62.4500        12
  62.5000         7
  62.5500        11
  62.6000        13
  62.6500         7
  62.7000         9
  62.7500        13
  62.8000         9
  62.8500        10
  62.9000        20
  62.9500        13
  63.0000        12
  63.0500        12
  63.1000         5
  63.1500         8
  63.2000        10
  63.2500        12
  63.3000         7
  63.3500        13
  63.4000         9
  63.4500         7
  63.5000         9
  63.5500        11
  63.6000         8
  63.6500        20
  63.7000         9
  63.7500         8
  63.8000         8
  63.8500        13
  63.9000        10
  63.9500        11
  64.0000        11
  64.0500        18
  64.1000        13
  64.1500        17
  64.2000        12
  64.2500        14
  64.3000        15
  64.3500        19
  64.4000        10
  64.4500        11
  64.5000        11
  64.5500        10
  64.6000        11
  64.6500        11
  64.7000        17
  64.7500        12
  64.8000         9
  64.8500        10
  64.9000        11
  64.9500        12
  65.0000         9
  65.0500        11
  65.1000        10
  65.1500         7
  65.2000        11
  65.2500         9
  65.3000        14
  65.3500        13
  65.4000        10
  65.4500        16
  65.5000        11
  65.5500        14
  65.6000         8
  65.6500        11
  65.7000         8
  65.7500         8
  65.8000        12
  65.8500        11
  65.9000        11
  65.9500        13
  66.0000         9
  66.0500        10
  66.1000        15
  66.1500         8
  66.2000         7
  66.2500        13
  66.3000        12
  66.3500        12
  66.4000        10
  66.4500        11
  66.5000         9
  66.5500         8
  66.6000         7
  66.6500         7
  66.7000        17
  66.7500        12
  66.8000         8
  66.8500         8
  66.9000        15
  66.9500         9
  67.0000         7
  67.0500        12
  67.1000         7
  67.1500        10
  67.2000         8
  67.2500         5
  67.3000        12
  67.3500        14
  67.4000        14
  67.4500        17
  67.5000        13
  67.5500        13
  67.6000        11
  67.6500        14
  67.7000        15
  67.7500         6
  67.8000        11
  67.8500        14
  67.9000        12
  67.9500        11
  68.0000        11
  68.0500        13
  68.1000         9
  68.1500        14
  68.2000        14
  68.2500        14
  68.3000        20
  68.3500        14
  68.4000        11
  68.4500        11
  68.5000         7
  68.5500        15
  68.6000         9
  68.6500         9
  68.7000        11
  68.7500        11
  68.8000         8
  68.8500        22
  68.9000        12
  68.9500        12
  69.0000        15
  69.0500        14
  69.1000         9
  69.1500         9
  69.2000        13
  69.2500        15
  69.3000        11
  69.3500        19
  69.4000        22
  69.4500        10
  69.5000        12
  69.5500        18
  69.6000        15
  69.6500        11
  69.7000         9
  69.7500        17
  69.8000        15
  69.8500        12
  69.9000         6
  69.9500        13
  70.0000        11
  70.0500        17
  70.1000        10
  70.1500        15
  70.2000         7
  70.2500        13
  70.3000        13
  70.3500        17
  70.4000        13
  70.4500        10
  70.5000        12
  70.5500        10
  70.6000        23
  70.6500        24
  70.7000        29
  70.7500        31
  70.8000        24
  70.8500        39
  70.9000        72
  70.9500       115
  71.0000       222
  71.0500       330
  71.1000       322
  71.1500       279
  71.2000       209
  71.2500       216
  71.3000       158
  71.3500       151
  71.4000        83
  71.4500        49
  71.5000        32
  71.5500        22
  71.6000        18
  71.6500        27
  71.7000         9
  71.7500        17
  71.8000        14
  71.8500        17
  71.9000        12
  71.9500        12
  72.0000         8
  72.0500        14
  72.1000        14
  72.1500        14
  72.2000        14
  72.2500        11
  72.3000        15
  72.3500        11
  72.4000         9
  72.4500        11
  72.5000        12
  72.5500         8
  72.6000        13
  72.6500        13
  72.7000        25
  72.7500        10
  72.8000        11
  72.8500        11
  72.9000        10
  72.9500        10
  73.0000        12
  73.0500        16
  73.1000         9
  73.1500         7
  73.2000        23
  73.2500        13
  73.3000         9
  73.3500         7
  73.4000        10
  73.4500        13
  73.5000        13
  73.5500        11
  73.6000         5
  73.6500         6
  73.7000         8
  73.7500        13
  73.8000         6
  73.8500         8
  73.9000        13
  73.9500         9
  74.0000        16
  74.0500        14
  74.1000        16
  74.1500        13
  74.2000         7
  74.2500        10
  74.3000        16
  74.3500         9
  74.4000        16
  74.4500        11
  74.5000        12
  74.5500        17
  74.6000        14
  74.6500        10
  74.7000         8
  74.7500         7
  74.8000        11
  74.8500        18
  74.9000        12
  74.9500        11
  75.0000        15
  75.0500         9
  75.1000        11
  75.1500        10
  75.2000         8
  75.2500        15
  75.3000        17
  75.3500        13
  75.4000        10
  75.4500        23
  75.5000        14
  75.5500        16
  75.6000        18
  75.6500        12
  75.7000        13
  75.7500        20
  75.8000        13
  75.8500        13
  75.9000        35
  75.9500        20
  76.0000        43
  76.0500        50
  76.1000        78
  76.1500        57
  76.2000        60
  76.2500        48
  76.3000        42
  76.3500        36
  76.4000        33
  76.4500        36
  76.5000        23
  76.5500        15
  76.6000        14
  76.6500        15
  76.7000        12
  76.7500        12
  76.8000        13
  76.8500         9
  76.9000        15
  76.9500        11
  77.0000        11
  77.0500        11
  77.1000        15
  77.1500        12
  77.2000        14
  77.2500         7
  77.3000         5
  77.3500        14
  77.4000         9
  77.4500        10
  77.5000        17
  77.5500        10
  77.6000        13
  77.6500         6
  77.7000        13
  77.7500        14
  77.8000        10
  77.8500        11
  77.9000        11
  77.9500        12
  78.0000        16
  78.0500        13
  78.1000        17
  78.1500        12
  78.2000        14
  78.2500        14
  78.3000         8
  78.3500        12
  78.4000         6
  78.4500        15
  78.5000        10
  78.5500         8
  78.6000        12
  78.6500        16
  78.7000        12
  78.7500        12
  78.8000         8
  78.8500        16
  78.9000        10
  78.9500         8
  79.0000        16
  79.0500        11
  79.1000        15
  79.1500         9
  79.2000        19
  79.2500        17
  79.3000        13
  79.3500        11
  79.4000        14
  79.4500         7
  79.5000        13
  79.5500        12
  79.6000        12
  79.6500         9
  79.7000         4
  79.7500        13
  79.8000        11
  79.8500        15
  79.9000        12
  79.9500         8
  80.0000         8
  80.0500        13
  80.1000        11
  80.1500         6
  80.2000         7
  80.2500        19
  80.3000        12
  80.3500        10
  80.4000        14
  80.4500        10
  80.5000        12
  80.5500        16
  80.6000        18
  80.6500        14
  80.7000         8
  80.7500        10
  80.8000        13
  80.8500        21
  80.9000        32
  80.9500        19
  81.0000        37
  81.0500        47
  81.1000        45
  81.1500        44
  81.2000        34
  81.2500        21
  81.3000        34
  81.3500        24
  81.4000        21
  81.4500        17
  81.5000         7
  81.5500        10
  81.6000         4
  81.6500        15
  81.7000        16
  81.7500         8
  81.8000        13
  81.8500        15
  81.9000         9
  81.9500         8
  82.0000         5
  82.0500        10
  82.1000         8
  82.1500         5
  82.2000        13
  82.2500        10
  82.3000        11
  82.3500        13
  82.4000        16
  82.4500        11
  82.5000        13
  82.5500        15
  82.6000         5
  82.6500         9
  82.7000         7
  82.7500         8
  82.8000         5
  82.8500        11
  82.9000        13
  82.9500        18
  83.0000        10
  83.0500        11
  83.1000        10
  83.1500        12
  83.2000         5
  83.2500         9
  83.3000        13
  83.3500        13
  83.4000        11
  83.4500        16
  83.5000        17
  83.5500         7
  83.6000        13
  83.6500        19
  83.7000         9
  83.7500         5
  83.8000        12
  83.8500        15
  83.9000        12
  83.9500        10
  84.0000        12
  84.0500        10
  84.1000        15
  84.1500        12
  84.2000        18
  84.2500        15
  84.3000        18
  84.3500        16
  84.4000        14
  84.4500        14
  84.5000         8
  84.5500        11
  84.6000         9
  84.6500         9
  84.7000        11
  84.7500        16
  84.8000        13
  84.8500        12
  84.9000        14
  84.9500        10
  85.0000        15
  85.0500        22
  85.1000        11
  85.1500        18
  85.2000        17
  85.2500        20
  85.3000        16
  85.3500        19
  85.4000        23
  85.4500        18
  85.5000        24
  85.5500        24
  85.6000        32
  85.6500        28
  85.7000        49
  85.7500        73
  85.8000       133
  85.8500       223
  85.9000       290
  85.9500       282
  86.0000       219
  86.0500       163
  86.1000       139
  86.1500       179
  86.2000       158
  86.2500       141
  86.3000        91
  86.3500        47
  86.4000        45
  86.4500        29
  86.5000        18
  86.5500        29
  86.6000        16
  86.6500        18
  86.7000        12
  86.7500         9
  86.8000        13
  86.8500        10
  86.9000        10
  86.9500        16
  87.0000        12
  87.0500        14
  87.1000        13
  87.1500        23
  87.2000        10
  87.2500        18
  87.3000        14
  87.3500        11
  87.4000        12
  87.4500         9
  87.5000        15
  87.5500        14
  87.6000        17
  87.6500        14
  87.7000        13
  87.7500        12
  87.8000        15
  87.8500        11
  87.9000        14
  87.9500        10
  88.0000        11
  88.0500        14
  88.1000        14
  88.1500        18
  88.2000         7
  88.2500        13
  88.3000        11
  88.3500        10
  88.4000        11
  88.4500        11
  88.5000        12
  88.5500         7
  88.6000        12
  88.6500         9
  88.7000        12
  88.7500         7
  88.8000         5
  88.8500         5
  88.9000        19
  88.9500        15
  89.0000        13
  89.0500         6
  89.1000        10
  89.1500         7
  89.2000         7
  89.2500        17
  89.3000        12
  89.3500         6
  89.4000         8
  89.4500         9
  89.5000        11
  89.5500         5
  89.6000        21
  89.6500        10
  89.7000         6
  89.7500        11
  89.8000         9
  89.8500        13
  89.9000        10
  89.9500        10
  90.0000        15
  90.0500        11
  90.1000        15
  90.1500         8
  90.2000        10
  90.2500        10
  90.3000        21
  90.3500        16
  90.4000         9
  90.4500        14
  90.5000        19
  90.5500        20
  90.6000        27
  90.6500        55
  90.7000        82
  90.7500        90
  90.8000       101
  90.8500        78
  90.9000        48
  90.9500        49
  91.0000        44
  91.0500        54
  91.1000        44
  91.1500        36
  91.2000        24
  91.2500        18
  91.3000        22
  91.3500        15
  91.4000        13
  91.4500        12
  91.5000        14
  91.5500        13
  91.6000        11
  91.6500         8
  91.7000        15
  91.7500        10
  91.8000        12
  91.8500        11
  91.9000        16
  91.9500         9
  92.0000         8
  92.0500        12
  92.1000         7
  92.1500        15
  92.2000         8
  92.2500         9
  92.3000        18
  92.3500         4
  92.4000        10
  92.4500         9
  92.5000         7
  92.5500        14
  92.6000        14
  92.6500        13
  92.7000        14
  92.7500         7
  92.8000         9
  92.8500         9
  92.9000        13
  92.9500        11
  93.0000        13
  93.0500        11
  93.1000        10
  93.1500         5
  93.2000         8
  93.2500        10
  93.3000         9
  93.3500        19
  93.4000         8
  93.4500        11
  93.5000         8
  93.5500        14
  93.6000         9
  93.6500         7
  93.7000        14
  93.7500        13
  93.8000        12
  93.8500        10
  93.9000         9
  93.9500         8
  94.0000         7
  94.0500        12
  94.1000        13
  94.1500         8
  94.2000         9
  94.2500        17
  94.3000        12
  94.3500         9
  94.4000        11
  94.4500        11
  94.5000        13
  94.5500        14
  94.6000        19
  94.6500        17
  94.7000         6
  94.7500         6
  94.8000        13
  94.8500         6
  94.9000        13
  94.9500        14
  95.0000        19
  95.0500         6
  95.1000        10
  95.1500        10
  95.2000        16
  95.2500        16
  95.3000        12
  95.3500        14
  95.4000        11
  95.4500        19
  95.5000        17
  95.5500        40
  95.6000        37
  95.6500        36
  95.7000        28
  95.7500        23
  95.8000        25
  95.8500        24
  95.9000        27
  95.9500        17
  96.0000        25
  96.0500        25
  96.1000        19
  96.1500        14
  96.2000        13
  96.2500        13
  96.3000        19
  96.3500        10
  96.4000        10
  96.4500        16
  96.5000        16
  96.5500        11
  96.6000        15
  96.6500        13
  96.7000        11
  96.7500        15
  96.8000         8
  96.8500        11
  96.9000        13
  96.9500         7
  97.0000        15
  97.0500        15
  97.1000        10
  97.1500        11
  97.2000        17
  97.2500        12
  97.3000         9
  97.3500         5
  97.4000        17
  97.4500         8
  97.5000         9
  97.5500         7
  97.6000        14
  97.6500         6
  97.7000        11
  97.7500         7
  97.8000        15
  97.8500         8
  97.9000        12
  97.9500         8
  98.0000        10
  98.0500        17
  98.1000        11
  98.1500        13
  98.2000         8
  98.2500        14
  98.3000         7
  98.3500        12
  98.4000        12
  98.4500        16
  98.5000         5
  98.5500        15
  98.6000        14
  98.6500        11
  98.7000         8
  98.7500         9
  98.8000        11
  98.8500         9
  98.9000        11
  98.9500         5
  99.0000        10
  99.0500        14
  99.1000        15
  99.1500        13
  99.2000        15
  99.2500        11
  99.3000        11
  99.3500        15
  99.4000        15
  99.4500        14
  99.5000        12
  99.5500        14
  99.6000        10
  99.6500        16
  99.7000         9
  99.7500         7
  99.8000        12
  99.8500        11
  99.9000        13
  99.9500        12
 100.0000        18
 100.0500         6
 100.1000        19
 100.1500        19
 100.2000        10
 100.2500        22
 100.3000        24
 100.3500        25
 100.4000        42
 100.4500        69
 100.5000        60
 100.5500        50
 100.6000        32
 100.6500        27
 100.7000        33
 100.7500        34
 100.8000        25
 100.8500        34
 100.9000        25
 100.9500        30
 101.0000        30
 101.0500        19
 101.1000         7
 101.1500        13
 101.2000         7
 101.2500         3
 101.3000         7
 101.3500        11
 101.4000        17
 101.4500         9
 101.5000        14
 101.5500        15
 101.6000        14
 101.6500        17
 101.7000        15
 101.7500        17
 101.8000        13
 101.8500        11
 101.9000         7
 101.9500         7
 102.0000        20
 102.0500        24
 102.1000         9
 102.1500         8
 102.2000        14
 102.2500        17
 102.3000        12
 102.3500        11
 102.4000        14
 102.4500        10
 102.5000        13
 102.5500        10
 102.6000        13
 102.6500        11
 102.7000        14
 102.7500        10
 102.8000         7
 102.8500        14
 102.9000         6
 102.9500        10
 103.0000        12
 103.0500         7
 103.1000         9
 103.1500         5
 103.2000        15
 103.2500        14
 103.3000        13
 103.3500        13
 103.4000         5
 103.4500         4
 103.5000         9
 103.5500         9
 103.6000         6
 103.6500         7
 103.7000         8
 103.7500         2
 103.8000        15
 103.8500        10
 103.9000        11
 103.9500         8
 104.0000         8
 104.0500         8
 104.1000        12
 104.1500        12
 104.2000         8
 104.2500         7
 104.3000        14
 104.3500         5
 104.4000         7
 104.4500         8
 104.5000         9
 104.5500         9
 104.6000        11
 104.6500         5
 104.7000        14
 104.7500        11
 104.8000         9
 104.8500        13
 104.9000        11
 104.9500         9
 105.0000        19
 105.0500         7
 105.1000         5
 105.1500         9
 105.2000         7
 105.2500         8
 105.3000        11
 105.3500         9
 105.4000        10
 105.4500        12
 105.5000        11
 105.5500        13
 105.6000        11
 105.6500        15
 105.7000         8
 105.7500        12
 105.8000        14
 105.8500        11
 105.9000        11
 105.9500        12
 106.0000         8
 106.0500         8
 106.1000        11
 106.1500         6
 106.2000        17
 106.2500        10
 106.3000        10
 106.3500        12
 106.4000        12
 106.4500        17
 106.5000         5
 106.5500        15
 106.6000         9
 106.6500        10
 106.7000        10
 106.7500        11
 106.8000        14
 106.8500        14
 106.9000        13
 106.9500         9
 107.0000        12
 107.0500        11
 107.1000         6
 107.1500        13
 107.2000         8
 107.2500         9
 107.3000        15
 107.3500        13
 107.4000        13
 107.4500        15
 107.5000        15
 107.5500        16
 107.6000        10
 107.6500        11
 107.7000        14
 107.7500        10
 107.8000        13
 107.8500         8
 107.9000        16
 107.9500        10
 108.0000         7
 108.0500        18
 108.1000         8
 108.1500         4
 108.2000        15
 108.2500        12
 108.3000         9
 108.3500         9
 108.4000         8
 108.4500         7
 108.5000         8
 108.5500        13
 108.6000         9
 108.6500        14
 108.7000         8
 108.7500        12
 108.8000         6
 108.8500        15
 108.9000        13
 108.9500        12
 109.0000         7
 109.0500         7
 109.1000        10
 109.1500         7
 109.2000        13
 109.2500        12
 109.3000         6
 109.3500        13
 109.4000        15
 109.4500        11
 109.5000        12
 109.5500         7
 109.6000        10
 109.6500         8
 109.7000        17
 109.7500         9
 109.8000         9
 109.8500        15
 109.9000        19
 109.9500        15
 110.0000        12
