  10.0000        19
  10.0500        17
  10.1000        28
  10.1500        23
  10.2000        28
  10.2500        24
  10.3000        22
  10.3500        16
  10.4000        21
  10.4500        17
  10.5000        29
  10.5500        26
  10.6000        24
  10.6500        23
  10.7000        18
  10.7500        15
  10.8000        31
  10.8500        23
  10.9000        13
  10.9500        14
  11.0000        12
  11.0500        20
  11.1000        18
  11.1500        17
  11.2000        23
  11.2500        12
  11.3000        13
  11.3500        12
  11.4000        20
  11.4500        13
  11.5000        15
  11.5500        25
  11.6000        20
  11.6500        13
  11.7000        21
  11.7500        16
  11.8000        16
  11.8500        20
  11.9000        21
  11.9500        15
  12.0000        16
  12.0500        22
  12.1000        16
  12.1500        27
  12.2000        16
  12.2500        19
  12.3000         8
  12.3500        13
  12.4000        19
  12.4500        18
  12.5000        19
  12.5500        17
  12.6000        12
  12.6500        16
  12.7000        19
  12.7500        18
  12.8000        17
  12.8500        14
  12.9000        15
  12.9500        19
  13.0000        21
  13.0500        27
  13.1000        19
  13.1500        21
  13.2000        18
  13.2500        21
  13.3000        12
  13.3500        11
  13.4000        19
  13.4500        17
  13.5000        12
  13.5500         9
  13.6000        15
  13.6500        12
  13.7000        15
  13.7500        13
  13.8000        16
  13.8500        15
  13.9000        14
  13.9500        21
  14.0000        17
  14.0500        12
  14.1000        18
  14.1500        17
  14.2000        12
  14.2500        17
  14.3000        22
  14.3500        14
  14.4000        14
  14.4500         9
  14.5000        15
  14.5500        19
  14.6000        13
  14.6500        24
  14.7000         9
  14.7500         9
  14.8000        16
  14.8500        17
  14.9000        14
  14.9500        16
  15.0000        18
  15.0500        27
  15.1000         7
  15.1500        16
  15.2000        21
  15.2500        18
  15.3000        14
  15.3500        15
  15.4000        13
  15.4500        10
  15.5000        16
  15.5500        20
  15.6000        17
  15.6500        14
  15.7000        14
  15.7500        15
  15.8000        11
  15.8500        14
  15.9000        15
  15.9500        20
  16.0000        18
  16.0500        19
  16.1000         5
  16.1500        16
  16.2000        12
  16.2500        21
  16.3000        20
  16.3500        20
  16.4000        16
  16.4500        23
  16.5000        19
  16.5500        17
  16.6000        24
  16.6500        17
  16.7000        23
  16.7500        17
  16.8000        12
  16.8500        14
  16.9000        15
  16.9500        20
  17.0000        16
  17.0500        18
  17.1000        14
  17.1500        18
  17.2000        13
  17.2500        15
  17.3000        14
  17.3500        17
  17.4000        18
  17.4500        14
  17.5000         7
  17.5500        22
  17.6000        13
  17.6500        15
  17.7000        17
  17.7500        18
  17.8000        16
  17.8500        12
  17.9000        13
  17.9500        12
  18.0000        10
  18.0500        21
  18.1000        22
  18.1500        17
  18.2000        15
  18.2500        16
  18.3000        13
  18.3500        14
  18.4000        14
  18.4500        11
  18.5000        15
  18.5500        14
  18.6000         7
  18.6500        17
  18.7000        15
  18.7500        15
  18.8000        12
  18.8500        14
  18.9000        14
  18.9500         9
  19.0000        19
  19.0500         9
  19.1000        16
  19.1500        16
  19.2000        13
  19.2500        16
  19.3000        20
  19.3500        11
  19.4000        13
  19.4500        20
  19.5000        22
  19.5500        24
  19.6000        16
  19.6500         9
  19.7000        10
  19.7500        24
  19.8000         8
  19.8500        13
  19.9000        13
  19.9500        16
  20.0000        10
  20.0500         9
  20.1000        11
  20.1500        11
  20.2000        20
  20.2500        14
  20.3000         9
  20.3500        14
  20.4000        10
  20.4500         7
  20.5000        16
  20.5500        15
  20.6000        15
  20.6500        10
  20.7000         9
  20.7500         6
  20.8000        18
  20.8500         8
  20.9000        11
  20.9500         8
  21.0000        11
  21.0500        25
  21.1000        18
  21.1500         7
  21.2000        19
  21.2500        18
  21.3000        10
  21.3500        13
  21.4000        12
  21.4500         9
  21.5000        12
  21.5500        13
  21.6000        17
  21.6500        21
  21.7000        14
  21.7500        12
  21.8000        15
  21.8500        12
  21.9000        14
  21.9500        16
  22.0000        17
  22.0500        14
  22.1000        16
  22.1500        10
  22.2000        20
  22.2500        15
  22.3000        10
  22.3500        18
  22.4000        15
  22.4500        22
  22.5000        13
  22.5500        21
  22.6000        12
  22.6500        17
  22.7000        19
  22.7500        14
  22.8000        13
  22.8500        15
  22.9000        20
  22.9500        12
  23.0000        23
  23.0500        15
  23.1000        18
  23.1500        21
  23.2000        17
  23.2500        25
  23.3000        16
  23.3500        19
  23.4000        23
  23.4500        35
  23.5000        32
  23.5500        66
  23.6000       113
  23.6500       186
  23.7000       188
  23.7500       202
  23.8000       192
  23.8500       111
  23.9000        56
  23.9500        37
  24.0000        24
  24.0500        15
  24.1000        24
  24.1500        24
  24.2000        25
  24.2500        17
  24.3000        13
  24.3500        21
  24.4000        17
  24.4500        16
  24.5000        13
  24.5500        14
  24.6000        12
  24.6500        14
  24.7000        11
  24.7500        17
  24.8000        10
  24.8500        11
  24.9000        16
  24.9500        18
  25.0000         7
  25.0500        17
  25.1000         9
  25.1500        13
  25.2000        10
  25.2500         8
  25.3000        12
  25.3500         7
  25.4000        20
  25.4500        16
  25.5000        11
  25.5500        12
  25.6000         6
  25.6500        13
  25.7000        12
  25.7500        15
  25.8000        16
  25.8500        22
  25.9000        10
  25.9500        13
  26.0000        14
  26.0500        14
  26.1000        15
  26.1500        12
  26.2000        13
  26.2500        20
  26.3000        20
  26.3500        12
  26.4000        10
  26.4500        14
  26.5000        15
  26.5500        18
  26.6000         7
  26.6500        13
  26.7000        10
  26.7500        14
  26.8000        17
  26.8500        13
  26.9000        10
  26.9500        12
  27.0000        14
  27.0500        18
  27.1000        10
  27.1500        11
  27.2000         9
  27.2500        15
  27.3000        14
  27.3500        14
  27.4000         8
  27.4500        13
  27.5000        10
  27.5500        16
  27.6000        17
  27.6500        12
  27.7000        12
  27.7500        15
  27.8000        10
  27.8500        22
  27.9000         7
  27.9500         9
  28.0000        17
  28.0500        13
  28.1000        11
  28.1500        16
  28.2000        14
  28.2500         9
  28.3000        12
  28.3500         9
  28.4000        14
  28.4500        17
  28.5000        14
  28.5500        16
  28.6000        10
  28.6500        19
  28.7000        11
  28.7500        22
  28.8000        18
  28.8500        16
  28.9000        18
  28.9500        18
  29.0000        11
  29.0500        10
  29.1000        12
  29.1500        16
  29.2000        13
  29.2500        10
  29.3000         9
  29.3500        15
  29.4000        16
  29.4500        15
  29.5000        13
  29.5500        13
  29.6000        23
  29.6500        12
  29.7000         8
  29.7500        12
  29.8000         8
  29.8500        11
  29.9000        10
  29.9500        14
  30.0000        13
  30.0500        12
  30.1000        11
  30.1500        13
  30.2000        11
  30.2500         9
  30.3000         8
  30.3500        12
  30.4000        14
  30.4500        11
  30.5000        16
  30.5500        21
  30.6000        10
  30.6500        14
  30.7000        13
  30.7500        18
  30.8000         8
  30.8500        12
  30.9000        11
  30.9500        16
  31.0000        14
  31.0500        15
  31.1000        14
  31.1500        19
  31.2000        12
  31.2500        14
  31.3000        12
  31.3500         5
  31.4000        13
  31.4500        16
  31.5000        18
  31.5500        16
  31.6000        13
  31.6500        14
  31.7000        13
  31.7500        11
  31.8000        13
  31.8500        18
  31.9000        17
  31.9500        14
  32.0000        10
  32.0500        13
  32.1000        18
  32.1500        16
  32.2000        17
  32.2500        10
  32.3000        16
  32.3500        15
  32.4000        13
  32.4500        11
  32.5000        13
  32.5500        14
  32.6000        19
  32.6500        16
  32.7000        21
  32.7500        12
  32.8000        13
  32.8500        14
  32.9000        17
  32.9500         6
  33.0000        18
  33.0500        17
  33.1000        16
  33.1500        24
  33.2000        18
  33.2500        11
  33.3000        22
  33.3500        22
  33.4000        29
  33.4500        19
  33.5000        43
  33.5500        37
  33.6000        64
  33.6500       105
  33.7000       182
  33.7500       236
  33.8000       291
  33.8500       258
  33.9000       226
  33.9500       155
  34.0000        88
  34.0500        63
  34.1000        42
  34.1500        24
  34.2000        18
  34.2500        17
  34.3000        23
  34.3500        22
  34.4000        14
  34.4500        18
  34.5000        11
  34.5500        17
  34.6000        17
  34.6500        16
  34.7000        16
  34.7500        16
  34.8000        11
  34.8500        16
  34.9000        22
  34.9500        11
  35.0000        14
  35.0500        15
  35.1000        18
  35.1500        15
  35.2000         8
  35.2500        16
  35.3000         8
  35.3500        12
  35.4000        10
  35.4500         9
  35.5000        15
  35.5500        19
  35.6000        18
  35.6500        12
  35.7000        17
  35.7500        16
  35.8000        12
  35.8500         9
  35.9000         9
  35.9500        16
  36.0000        13
  36.0500        10
  36.1000        11
  36.1500        11
  36.2000        19
  36.2500        11
  36.3000         7
  36.3500        19
  36.4000        19
  36.4500        13
  36.5000        12
  36.5500        16
  36.6000        14
  36.6500        16
  36.7000         8
  36.7500         8
  36.8000        19
  36.8500        20
  36.9000        16
  36.9500        16
  37.0000        20
  37.0500        13
  37.1000        10
  37.1500         7
  37.2000        13
  37.2500        13
  37.3000        17
  37.3500        12
  37.4000        11
  37.4500        11
  37.5000        18
  37.5500        18
  37.6000        17
  37.6500        12
  37.7000        16
  37.7500        12
  37.8000        24
  37.8500        16
  37.9000        15
  37.9500        12
  38.0000         9
  38.0500        14
  38.1000        18
  38.1500        17
  38.2000        18
  38.2500        15
  38.3000        14
  38.3500        11
  38.4000        16
  38.4500        14
  38.5000        19
  38.5500        11
  38.6000        16
  38.6500        14
  38.7000        12
  38.7500        11
  38.8000        17
  38.8500        10
  38.9000         6
  38.9500        12
  39.0000        18
  39.0500        19
  39.1000        14
  39.1500        12
  39.2000        20
  39.2500         9
  39.3000        10
  39.3500        20
  39.4000         8
  39.4500         6
  39.5000        14
  39.5500        14
  39.6000         7
  39.6500        13
  39.7000        10
  39.7500        17
  39.8000        14
  39.8500        13
  39.9000        12
  39.9500        15
  40.0000         4
  40.0500        11
  40.1000        17
  40.1500        20
  40.2000        16
  40.2500        14
  40.3000        19
  40.3500        23
  40.4000        26
  40.4500        15
  40.5000        20
  40.5500        16
  40.6000        12
  40.6500        15
  40.7000        20
  40.7500        18
  40.8000        24
  40.8500        20
  40.9000        20
  40.9500        18
  41.0000        19
  41.0500        16
  41.1000        16
  41.1500        22
  41.2000        36
  41.2500        24
  41.3000        32
  41.3500        37
  41.4000        44
  41.4500        73
  41.5000       138
  41.5500       241
  41.6000       527
  41.6500       901
  41.7000      1092
  41.7500      1089
  41.8000       854
  41.8500       595
  41.9000       325
  41.9500       152
  42.0000        76
  42.0500        46
  42.1000        39
  42.1500        18
  42.2000        15
  42.2500        26
  42.3000        13
  42.3500        24
  42.4000        19
  42.4500        18
  42.5000        16
  42.5500        21
  42.6000        17
  42.6500         8
  42.7000        21
  42.7500        20
  42.8000         8
  42.8500        12
  42.9000        19
  42.9500        15
  43.0000        14
  43.0500        10
  43.1000        11
  43.1500        17
  43.2000        12
  43.2500        18
  43.3000        18
  43.3500        16
  43.4000        12
  43.4500        14
  43.5000        13
  43.5500        15
  43.6000        13
  43.6500        13
  43.7000         7
  43.7500        12
  43.8000        13
  43.8500         8
  43.9000        13
  43.9500        19
  44.0000        16
  44.0500        18
  44.1000        13
  44.1500        12
  44.2000         8
  44.2500        14
  44.3000        18
  44.3500        16
  44.4000        20
  44.4500        21
  44.5000        25
  44.5500        14
  44.6000         9
  44.6500        15
  44.7000        10
  44.7500        13
  44.8000        12
  44.8500        15
  44.9000        12
  44.9500        11
  45.0000        11
  45.0500        16
  45.1000         8
  45.1500        11
  45.2000        13
  45.2500        11
  45.3000        17
  45.3500        11
  45.4000         9
  45.4500        14
  45.5000        15
  45.5500        10
  45.6000        12
  45.6500         6
  45.7000        18
  45.7500        11
  45.8000         9
  45.8500        14
  45.9000         7
  45.9500        10
  46.0000        11
  46.0500         7
  46.1000         8
  46.1500        14
  46.2000         7
  46.2500        10
  46.3000        10
  46.3500        17
  46.4000        12
  46.4500        12
  46.5000        15
  46.5500        13
  46.6000        12
  46.6500        10
  46.7000        14
  46.7500        14
  46.8000        13
  46.8500        12
  46.9000        14
  46.9500        12
  47.0000        13
  47.0500        20
  47.1000        13
  47.1500        22
  47.2000        11
  47.2500         9
  47.3000         9
  47.3500        10
  47.4000        15
  47.4500        13
  47.5000        17
  47.5500         9
  47.6000        12
  47.6500        15
  47.7000        19
  47.7500        14
  47.8000        11
  47.8500        17
  47.9000        15
  47.9500        19
  48.0000        14
  48.0500        13
  48.1000        15
  48.1500        20
  48.2000        29
  48.2500        36
  48.3000        51
  48.3500        64
  48.4000       141
  48.4500       264
  48.5000       375
  48.5500       398
  48.6000       386
  48.6500       296
  48.7000       245
  48.7500       129
  48.8000        75
  48.8500        46
  48.9000        28
  48.9500        25
  49.0000        14
  49.0500        10
  49.1000        19
  49.1500         9
  49.2000        10
  49.2500        17
  49.3000         7
  49.3500        11
  49.4000         6
  49.4500        15
  49.5000         8
  49.5500         8
  49.6000        16
  49.6500        10
  49.7000        11
  49.7500        14
  49.8000        18
  49.8500        10
  49.9000         8
  49.9500        11
  50.0000         9
  50.0500        15
  50.1000        11
  50.1500        11
  50.2000        10
  50.2500        14
  50.3000         9
  50.3500        16
  50.4000        13
  50.4500         9
  50.5000        13
  50.5500         4
  50.6000        15
  50.6500        15
  50.7000        12
  50.7500        10
  50.8000        13
  50.8500         8
  50.9000         9
  50.9500        10
  51.0000         7
  51.0500        11
  51.1000         8
  51.1500        15
  51.2000         9
  51.2500        20
  51.3000        13
  51.3500        13
  51.4000         6
  51.4500        13
  51.5000         8
  51.5500         9
  51.6000        12
  51.6500        13
  51.7000        12
  51.7500         9
  51.8000        12
  51.8500        16
  51.9000        13
  51.9500         8
  52.0000        15
  52.0500         6
  52.1000        10
  52.1500         6
  52.2000        11
  52.2500         8
  52.3000        11
  52.3500        10
  52.4000        11
  52.4500        12
  52.5000        15
  52.5500        13
  52.6000        10
  52.6500        11
  52.7000         7
  52.7500        14
  52.8000        12
  52.8500        12
  52.9000        12
  52.9500         7
  53.0000        13
  53.0500         5
  53.1000        16
  53.1500        11
  53.2000        13
  53.2500        13
  53.3000        17
  53.3500         9
  53.4000        16
  53.4500        16
  53.5000         5
  53.5500        12
  53.6000        15
  53.6500        15
  53.7000         7
  53.7500        10
  53.8000        11
  53.8500        16
  53.9000        14
  53.9500        11
  54.0000        14
  54.0500        21
  54.1000        18
  54.1500        16
  54.2000        12
  54.2500        15
  54.3000        13
  54.3500        19
  54.4000        18
  54.4500        24
  54.5000        40
  54.5500        52
  54.6000        61
  54.6500       110
  54.7000       136
  54.7500       127
  54.8000       122
  54.8500       101
  54.9000        85
  54.9500        63
  55.0000        30
  55.0500        21
  55.1000        18
  55.1500        14
  55.2000        18
  55.2500        14
  55.3000        17
  55.3500        16
  55.4000        17
  55.4500        15
  55.5000        11
  55.5500         8
  55.6000        16
  55.6500         9
  55.7000         8
  55.7500        11
  55.8000        16
  55.8500        10
  55.9000        12
  55.9500         6
  56.0000        14
  56.0500        21
  56.1000        20
  56.1500        12
  56.2000        14
  56.2500        13
  56.3000        11
  56.3500        18
  56.4000        15
  56.4500         7
  56.5000        16
  56.5500         9
  56.6000         6
  56.6500        11
  56.7000        13
  56.7500        13
  56.8000        15
  56.8500        14
  56.9000         8
  56.9500        10
  57.0000         2
  57.0500        10
  57.1000        12
  57.1500         9
  57.2000        12
  57.2500         8
  57.3000        15
  57.3500         6
  57.4000        12
  57.4500        11
  57.5000         4
  57.5500        17
  57.6000        14
  57.6500        17
  57.7000        14
  57.7500        10
  57.8000         5
  57.8500         9
  57.9000         9
  57.9500        16
  58.0000         8
  58.0500         9
  58.1000        14
  58.1500         9
  58.2000        12
  58.2500        11
  58.3000         9
  58.3500        11
  58.4000        14
  58.4500         6
  58.5000         8
  58.5500         7
  58.6000        14
  58.6500        12
  58.7000         8
  58.7500         8
  58.8000         4
  58.8500        17
  58.9000        21
  58.9500         9
  59.0000        18
  59.0500        19
  59.1000        14
  59.1500         9
  59.2000        11
  59.2500         9
  59.3000         9
  59.3500         9
  59.4000        13
  59.4500         9
  59.5000        17
  59.5500        15
  59.6000        12
  59.6500        12
  59.7000         6
  59.7500         9
  59.8000         7
  59.8500        18
  59.9000         8
  59.9500        14
  60.0000        15
  60.0500        14
  60.1000        20
  60.1500        20
  60.2000        14
  60.2500        20
  60.3000        27
  60.3500        65
  60.4000        94
  60.4500        92
  60.5000        69
  60.5500        83
  60.6000        72
  60.6500        62
  60.7000        33
  60.7500        23
  60.8000        23
  60.8500        20
  60.9000        20
  60.9500        14
  61.0000        20
  61.0500        11
  61.1000        10
  61.1500        16
  61.2000        12
  61.2500        19
  61.3000         7
  61.3500         5
  61.4000         8
  61.4500        14
  61.5000        16
  61.5500        10
  61.6000        14
  61.6500        13
  61.7000         7
  61.7500        16
  61.8000         9
  61.8500        13
  61.9000        11
  61.9500        12
  62.0000        10
  62.0500        21
  62.1000        15
  62.1500         9
  62.2000        15
  62.2500         9
  62.3000         8
  62.3500        10
  62.4000        15
  62.4500        18
  62.5000        13
  62.5500         9
  62.6000        13
  62.6500        10
  62.7000        13
  62.7500        10
  62.8000        10
  62.8500        17
  62.9000        11
  62.9500        18
  63.0000        15
  63.0500        13
  63.1000        16
  63.1500         8
  63.2000        10
  63.2500        13
  63.3000        20
  63.3500        14
  63.4000        11
  63.4500        10
  63.5000        15
  63.5500        13
  63.6000        14
  63.6500        11
  63.7000         8
  63.7500        12
  63.8000        11
  63.8500         9
  63.9000        13
  63.9500        16
  64.0000        11
  64.0500        11
  64.1000        11
  64.1500        12
  64.2000         4
  64.2500        10
  64.3000        11
  64.3500        14
  64.4000        11
  64.4500         8
  64.5000         9
  64.5500         8
  64.6000        17
  64.6500        12
  64.7000         8
  64.7500        11
  64.8000         8
  64.8500         9
  64.9000        15
  64.9500        13
  65.0000        10
  65.0500        12
  65.1000        10
  65.1500        15
  65.2000        12
  65.2500        11
  65.3000        14
  65.3500        15
  65.4000        10
  65.4500        13
  65.5000         8
  65.5500        13
  65.6000         9
  65.6500        15
  65.7000        13
  65.7500        17
  65.8000         9
  65.8500        11
  65.9000         9
  65.9500        14
  66.0000        12
  66.0500        14
  66.1000         9
  66.1500        10
  66.2000        12
  66.2500        17
  66.3000         9
  66.3500        10
  66.4000         8
  66.4500         9
  66.5000        15
  66.5500        11
  66.6000         6
  66.6500        11
  66.7000        12
  66.7500        12
  66.8000        12
  66.8500         9
  66.9000        16
  66.9500         8
  67.0000         8
  67.0500         9
  67.1000        13
  67.1500         9
  67.2000        11
  67.2500        11
  67.3000        11
  67.3500        11
  67.4000        11
  67.4500        15
  67.5000        17
  67.5500         7
  67.6000         9
  67.6500         5
  67.7000        14
  67.7500         9
  67.8000         8
  67.8500        14
  67.9000        13
  67.9500        13
  68.0000        10
  68.0500        12
  68.1000        14
  68.1500        13
  68.2000        10
  68.2500         9
  68.3000        13
  68.3500         6
  68.4000        17
  68.4500        14
  68.5000        14
  68.5500        15
  68.6000        13
  68.6500        11
  68.7000        15
  68.7500        18
  68.8000         9
  68.8500        10
  68.9000        14
  68.9500        12
  69.0000        18
  69.0500        12
  69.1000        10
  69.1500        19
  69.2000        14
  69.2500        10
  69.3000         9
  69.3500        15
  69.4000         7
  69.4500        18
  69.5000        20
  69.5500        11
  69.6000        13
  69.6500        11
  69.7000        11
  69.7500        10
  69.8000        15
  69.8500        16
  69.9000        10
  69.9500         9
  70.0000        11
  70.0500         7
  70.1000        17
  70.1500        13
  70.2000        11
  70.2500        17
  70.3000        11
  70.3500        16
  70.4000        18
  70.4500         9
  70.5000        18
  70.5500        26
  70.6000        16
  70.6500        25
  70.7000        20
  70.7500        35
  70.8000        30
  70.8500        46
  70.9000        80
  70.9500       118
  71.0000       206
  71.0500       315
  71.1000       340
  71.1500       290
  71.2000       232
  71.2500       197
  71.3000       161
  71.3500       119
  71.4000        79
  71.4500        42
  71.5000        36
  71.5500        19
  71.6000        18
  71.6500        19
  71.7000        19
  71.7500        15
  71.8000         9
  71.8500        14
  71.9000        14
  71.9500        10
  72.0000        13
  72.0500         7
  72.1000        18
  72.1500        11
  72.2000        12
  72.2500        12
  72.3000         9
  72.3500         6
  72.4000        12
  72.4500        11
  72.5000        10
  72.5500        13
  72.6000        15
  72.6500        12
  72.7000        16
  72.7500        15
  72.8000        13
  72.8500        12
  72.9000         8
  72.9500        10
  73.0000        13
  73.0500        13
  73.1000        14
  73.1500        15
  73.2000        19
  73.2500         9
  73.3000        10
  73.3500        13
  73.4000        16
  73.4500        13
  73.5000         9
  73.5500        20
  73.6000        12
  73.6500         9
  73.7000        11
  73.7500        11
  73.8000        12
  73.8500        12
  73.9000        12
  73.9500        12
  74.0000        18
  74.0500        22
  74.1000        10
  74.1500        19
  74.2000        13
  74.2500        13
  74.3000        12
  74.3500        12
  74.4000         9
  74.4500        10
  74.5000         8
  74.5500        13
  74.6000        11
  74.6500        16
  74.7000        12
  74.7500        14
  74.8000         7
  74.8500        18
  74.9000        10
  74.9500        11
  75.0000        14
  75.0500        13
  75.1000        13
  75.1500        14
  75.2000         9
  75.2500        12
  75.3000        10
  75.3500        17
  75.4000        11
  75.4500        17
  75.5000        14
  75.5500        11
  75.6000        15
  75.6500        12
  75.7000        11
  75.7500        10
  75.8000        16
  75.8500        13
  75.9000        25
  75.9500        17
  76.0000        41
  76.0500        59
  76.1000        70
  76.1500        59
  76.2000        57
  76.2500        47
  76.3000        45
  76.3500        31
  76.4000        29
  76.4500        30
  76.5000        16
  76.5500        20
  76.6000        10
  76.6500        14
  76.7000        18
  76.7500        11
  76.8000         8
  76.8500        12
  76.9000        12
  76.9500        16
  77.0000        15
  77.0500         8
  77.1000        12
  77.1500        16
  77.2000        15
  77.2500        12
  77.3000        12
  77.3500        11
  77.4000         9
  77.4500        11
  77.5000         8
  77.5500        19
  77.6000        14
  77.6500         7
  77.7000        10
  77.7500        10
  77.8000        20
  77.8500        13
  77.9000        14
  77.9500        11
  78.0000        14
  78.0500         7
  78.1000         8
  78.1500        11
  78.2000        11
  78.2500        14
  78.3000        17
  78.3500        20
  78.4000         7
  78.4500         9
  78.5000        12
  78.5500        14
  78.6000         4
  78.6500         9
  78.7000        18
  78.7500        10
  78.8000         8
  78.8500        12
  78.9000         9
  78.9500        13
  79.0000        10
  79.0500         8
  79.1000        12
  79.1500         7
  79.2000        12
  79.2500        10
  79.3000         4
  79.3500        13
  79.4000        13
  79.4500         9
  79.5000        12
  79.5500        19
  79.6000        12
  79.6500         9
  79.7000        14
  79.7500         8
  79.8000        11
  79.8500        14
  79.9000         8
  79.9500        14
  80.0000        10
  80.0500        12
  80.1000        11
  80.1500        13
  80.2000         9
  80.2500        13
  80.3000         7
  80.3500        16
  80.4000        11
  80.4500        13
  80.5000         7
  80.5500        10
  80.6000        17
  80.6500        16
  80.7000        14
  80.7500        11
  80.8000        18
  80.8500        14
  80.9000        22
  80.9500        26
  81.0000        42
  81.0500        35
  81.1000        45
  81.1500        32
  81.2000        30
  81.2500        30
  81.3000        30
  81.3500        23
  81.4000        27
  81.4500        16
  81.5000         9
  81.5500        10
  81.6000        18
  81.6500        10
  81.7000        10
  81.7500        13
  81.8000        14
  81.8500        20
  81.9000        13
  81.9500        14
  82.0000         4
  82.0500        12
  82.1000        13
  82.1500        12
  82.2000        13
  82.2500        15
  82.3000        12
  82.3500         7
  82.4000        11
  82.4500         8
  82.5000        11
  82.5500        10
  82.6000        13
  82.6500        10
  82.7000        13
  82.7500         8
  82.8000        12
  82.8500         8
  82.9000         7
  82.9500        11
  83.0000        11
  83.0500        16
  83.1000        13
  83.1500        17
  83.2000        11
  83.2500         7
  83.3000         8
  83.3500        15
  83.4000        11
  83.4500        14
  83.5000        12
  83.5500        19
  83.6000         6
  83.6500        12
  83.7000         6
  83.7500        16
  83.8000         8
  83.8500        15
  83.9000        17
  83.9500         9
  84.0000        13
  84.0500        15
  84.1000        10
  84.1500        12
  84.2000        13
  84.2500        20
  84.3000        18
  84.3500        12
  84.4000        12
  84.4500        17
  84.5000         7
  84.5500        11
  84.6000        10
  84.6500         6
  84.7000        17
  84.7500        10
  84.8000         9
  84.8500        10
  84.9000        15
  84.9500        11
  85.0000        21
  85.0500        14
  85.1000         9
  85.1500        17
  85.2000        13
  85.2500        15
  85.3000        17
  85.3500         9
  85.4000        21
  85.4500        27
  85.5000        18
  85.5500        24
  85.6000        31
  85.6500        31
  85.7000        49
  85.7500        61
  85.8000       147
  85.8500       198
  85.9000       246
  85.9500       271
  86.0000       215
  86.0500       171
  86.1000       155
  86.1500       155
  86.2000       159
  86.2500       146
  86.3000        78
  86.3500        63
  86.4000        35
  86.4500        26
  86.5000        23
  86.5500        14
  86.6000        22
  86.6500        17
  86.7000        13
  86.7500        14
  86.8000        17
  86.8500         9
  86.9000        14
  86.9500         7
  87.0000        12
  87.0500        13
  87.1000        17
  87.1500         8
  87.2000        12
  87.2500        13
  87.3000        11
  87.3500        12
  87.4000         9
  87.4500        14
  87.5000         9
  87.5500         4
  87.6000         7
  87.6500        19
  87.7000        15
  87.7500        16
  87.8000        17
  87.8500        10
  87.9000        14
  87.9500        12
  88.0000        10
  88.0500        13
  88.1000         9
  88.1500         5
  88.2000        15
  88.2500         6
  88.3000         8
  88.3500        10
  88.4000        10
  88.4500        17
  88.5000        10
  88.5500         9
  88.6000        11
  88.6500         6
  88.7000        13
  88.7500        20
  88.8000         8
  88.8500         7
  88.9000        13
  88.9500         8
  89.0000        14
  89.0500         4
  89.1000         9
  89.1500        18
  89.2000         7
  89.2500        12
  89.3000         5
  89.3500         6
  89.4000        11
  89.4500        14
  89.5000         8
  89.5500        10
  89.6000        12
  89.6500        11
  89.7000        13
  89.7500        10
  89.8000         9
  89.8500        10
  89.9000         8
  89.9500        19
  90.0000        14
  90.0500        20
  90.1000        16
  90.1500        19
  90.2000        17
  90.2500         8
  90.3000        12
  90.3500        15
  90.4000         9
  90.4500        15
  90.5000        22
  90.5500        19
  90.6000        34
  90.6500        50
  90.7000        85
  90.7500        96
  90.8000        84
  90.8500        68
  90.9000        63
  90.9500        50
  91.0000        53
  91.0500        54
  91.1000        62
  91.1500        42
  91.2000        20
  91.2500        22
  91.3000        12
  91.3500        16
  91.4000        15
  91.4500        19
  91.5000         6
  91.5500        16
  91.6000        17
  91.6500        12
  91.7000        10
  91.7500         9
  91.8000         9
  91.8500        10
  91.9000        10
  91.9500        14
  92.0000        11
  92.0500        11
  92.1000        11
  92.1500        13
  92.2000         6
  92.2500        13
  92.3000         8
  92.3500         7
  92.4000        14
  92.4500        13
  92.5000         6
  92.5500        11
  92.6000        13
  92.6500         7
  92.7000        14
  92.7500        19
  92.8000        15
  92.8500        10
  92.9000        11
  92.9500         9
  93.0000         8
  93.0500        11
  93.1000        14
  93.1500        12
  93.2000         6
  93.2500         8
  93.3000        13
  93.3500        13
  93.4000         9
  93.4500        12
  93.5000        14
  93.5500        14
  93.6000         4
  93.6500         8
  93.7000        11
  93.7500         8
  93.8000         8
  93.8500        11
  93.9000         6
  93.9500        12
  94.0000        11
  94.0500         6
  94.1000        10
  94.1500         7
  94.2000         9
  94.2500        14
  94.3000        10
  94.3500        15
  94.4000         6
  94.4500        13
  94.5000         3
  94.5500         8
  94.6000        11
  94.6500        14
  94.7000        12
  94.7500        17
  94.8000        11
  94.8500        10
  94.9000        13
  94.9500        10
  95.0000         7
  95.0500        16
  95.1000        11
  95.1500        17
  95.2000        15
  95.2500        12
  95.3000        10
  95.3500        12
  95.4000         8
  95.4500        15
  95.5000        27
  95.5500        27
  95.6000        27
  95.6500        38
  95.7000        39
  95.7500        26
  95.8000        24
  95.8500        25
  95.9000        25
  95.9500        29
  96.0000        28
  96.0500        19
  96.1000        18
  96.1500        12
  96.2000        12
  96.2500        17
  96.3000         6
  96.3500        14
  96.4000        10
  96.4500        12
  96.5000         7
  96.5500        14
  96.6000        15
  96.6500         3
  96.7000        15
  96.7500         4
  96.8000        12
  96.8500         8
  96.9000         3
  96.9500         5
  97.0000        13
  97.0500        16
  97.1000        10
  97.1500         8
  97.2000        15
  97.2500        11
  97.3000        12
  97.3500         8
  97.4000        13
  97.4500        11
  97.5000        17
  97.5500        11
  97.6000         8
  97.6500        14
  97.7000        10
  97.7500         9
  97.8000         7
  97.8500        12
  97.9000        12
  97.9500         6
  98.0000         6
  98.0500        11
  98.1000         7
  98.1500        14
  98.2000         7
  98.2500         8
  98.3000        10
  98.3500        16
  98.4000         8
  98.4500         3
  98.5000        18
  98.5500        10
  98.6000         7
  98.6500         9
  98.7000        11
  98.7500         9
  98.8000        14
  98.8500        14
  98.9000        10
  98.9500         3
  99.0000         9
  99.0500        15
  99.1000         6
  99.1500        14
  99.2000        14
  99.2500         9
  99.3000         7
  99.3500        11
  99.4000        12
  99.4500         6
  99.5000         6
  99.5500         8
  99.6000        12
  99.6500         5
  99.7000         9
  99.7500         7
  99.8000        15
  99.8500        13
  99.9000        13
  99.9500        16
 100.0000        14
 100.0500         6
 100.1000        14
 100.1500        23
 100.2000        16
 100.2500        21
 100.3000        25
 100.3500        32
 100.4000        55
 100.4500        42
 100.5000        64
 100.5500        42
 100.6000        50
 100.6500        35
 100.7000        46
 100.7500        27
 100.8000        33
 100.8500        30
 100.9000        33
 100.9500        28
 101.0000        21
 101.0500        23
 101.1000        19
 101.1500        12
 101.2000        19
 101.2500        17
 101.3000        11
 101.3500        10
 101.4000         9
 101.4500        12
 101.5000         8
 101.5500        15
 101.6000        12
 101.6500        14
 101.7000         8
 101.7500        14
 101.8000        18
 101.8500         9
 101.9000        16
 101.9500        16
 102.0000        10
 102.0500         8
 102.1000        10
 102.1500        10
 102.2000        16
 102.2500         8
 102.3000         5
 102.3500        14
 102.4000         8
 102.4500         7
 102.5000        15
 102.5500        11
 102.6000        11
 102.6500        13
 102.7000         6
 102.7500        11
 102.8000        13
 102.8500        17
 102.9000        10
 102.9500        12
 103.0000        17
 103.0500        12
 103.1000        10
 103.1500         9
 103.2000        11
 103.2500        13
 103.3000         9
 103.3500         8
 103.4000         8
 103.4500         9
 103.5000        12
 103.5500        12
 103.6000        11
 103.6500        10
 103.7000        10
 103.7500         9
 103.8000         9
 103.8500        14
 103.9000         8
 103.9500        11
 104.0000        16
 104.0500         9
 104.1000         5
 104.1500        14
 104.2000         8
 104.2500        10
 104.3000        11
 104.3500         7
 104.4000         9
 104.4500         8
 104.5000        14
 104.5500        13
 104.6000         5
 104.6500        18
 104.7000        13
 104.7500        10
 104.8000        13
 104.8500        11
 104.9000         9
 104.9500         8
 105.0000         9
 105.0500        12
 105.1000        11
 105.1500        12
 105.2000        19
 105.2500        12
 105.3000        14
 105.3500         9
 105.4000        10
 105.4500        11
 105.5000        12
 105.5500         4
 105.6000        10
 105.6500         8
 105.7000         9
 105.7500        16
 105.8000         6
 105.8500        10
 105.9000        16
 105.9500         7
 106.0000        11
 106.0500        16
 106.1000        20
 106.1500        13
 106.2000        11
 106.2500         8
 106.3000         9
 106.3500         7
 106.4000         8
 106.4500         9
 106.5000        12
 106.5500        10
 106.6000        12
 106.6500         6
 106.7000        16
 106.7500        15
 106.8000         8
 106.8500         9
 106.9000         9
 106.9500         9
 107.0000        10
 107.0500        10
 107.1000        11
 107.1500         7
 107.2000         9
 107.2500         9
 107.3000         6
 107.3500        10
 107.4000         6
 107.4500         9
 107.5000        11
 107.5500        11
 107.6000        11
 107.6500         9
 107.7000        12
 107.7500         8
 107.8000        18
 107.8500         7
 107.9000        16
 107.9500         7
 108.0000        15
 108.0500        13
 108.1000        12
 108.1500         7
 108.2000        15
 108.2500         9
 108.3000        17
 108.3500        15
 108.4000        12
 108.4500        14
 108.5000        17
 108.5500        14
 108.6000        11
 108.6500        19
 108.7000        12
 108.7500         6
 108.8000        10
 108.8500        10
 108.9000        10
 108.9500        12
 109.0000        11
 109.0500        13
 109.1000         5
 109.1500         6
 109.2000        12
 109.2500         8
 109.3000         9
 109.3500        19
 109.4000        10
 109.4500        10
 109.5000         7
 109.5500        11
 109.6000        14
 109.6500        17
 109.7000        11
 109.7500        10
 109.8000        15
 109.8500         9
 109.9000        11
 109.9500        11
 110.0000        14
