  10.0000        30
  10.0500        34
  10.1000        32
  10.1500        35
  10.2000        25
  10.2500        34
  10.3000        25
  10.3500        28
  10.4000        27
  10.4500        38
  10.5000        24
  10.5500        21
  10.6000        25
  10.6500        20
  10.7000        29
  10.7500        27
  10.8000        19
  10.8500        30
  10.9000        23
  10.9500        15
  11.0000        33
  11.0500        28
  11.1000        29
  11.1500        25
  11.2000        37
  11.2500        22
  11.3000        26
  11.3500        28
  11.4000        35
  11.4500        33
  11.5000        23
  11.5500        24
  11.6000        32
  11.6500        18
  11.7000        33
  11.7500        26
  11.8000        35
  11.8500        26
  11.9000        30
  11.9500        28
  12.0000        29
  12.0500        25
  12.1000        16
  12.1500        25
  12.2000        30
  12.2500        26
  12.3000        29
  12.3500        36
  12.4000        20
  12.4500        33
  12.5000        27
  12.5500        30
  12.6000        30
  12.6500        27
  12.7000        25
  12.7500        22
  12.8000        34
  12.8500        33
  12.9000        30
  12.9500        25
  13.0000        43
  13.0500        17
  13.1000        20
  13.1500        29
  13.2000        28
  13.2500        22
  13.3000        24
  13.3500        21
  13.4000        31
  13.4500        35
  13.5000        31
  13.5500        23
  13.6000        22
  13.6500        24
  13.7000        31
  13.7500        22
  13.8000        38
  13.8500        23
  13.9000        17
  13.9500        26
  14.0000        23
  14.0500        21
  14.1000        29
  14.1500        32
  14.2000        17
  14.2500        28
  14.3000        34
  14.3500        35
  14.4000        28
  14.4500        28
  14.5000        20
  14.5500        20
  14.6000        26
  14.6500        29
  14.7000        39
  14.7500        29
  14.8000        35
  14.8500        35
  14.9000        32
  14.9500        30
  15.0000        22
  15.0500        27
  15.1000        29
  15.1500        27
  15.2000        35
  15.2500        25
  15.3000        17
  15.3500        29
  15.4000        27
  15.4500        28
  15.5000        29
  15.5500        31
  15.6000        22
  15.6500        24
  15.7000        20
  15.7500        37
  15.8000        33
  15.8500        27
  15.9000        28
  15.9500        34
  16.0000        31
  16.0500        27
  16.1000        21
  16.1500        19
  16.2000        25
  16.2500        25
  16.3000        25
  16.3500        18
  16.4000        35
  16.4500        28
  16.5000        37
  16.5500        26
  16.6000        18
  16.6500        25
  16.7000        22
  16.7500        34
  16.8000        35
  16.8500        24
  16.9000        32
  16.9500        25
  17.0000        32
  17.0500        17
  17.1000        20
  17.1500        24
  17.2000        31
  17.2500        31
  17.3000        19
  17.3500        17
  17.4000        24
  17.4500        27
  17.5000        22
  17.5500        29
  17.6000        35
  17.6500        31
  17.7000        18
  17.7500        39
  17.8000        24
  17.8500        19
  17.9000        24
  17.9500        30
  18.0000        29
  18.0500        24
  18.1000        19
  18.1500        28
  18.2000        23
  18.2500        31
  18.3000        29
  18.3500        25
  18.4000        25
  18.4500        29
  18.5000        25
  18.5500        30
  18.6000        22
  18.6500        23
  18.7000        25
  18.7500        25
  18.8000        25
  18.8500        27
  18.9000        19
  18.9500        29
  19.0000        21
  19.0500        25
  19.1000        35
  19.1500        25
  19.2000        27
  19.2500        19
  19.3000        25
  19.3500        21
  19.4000        24
  19.4500        21
  19.5000        28
  19.5500        31
  19.6000        29
  19.6500        19
  19.7000        31
  19.7500        30
  19.8000        34
  19.8500        20
  19.9000        29
  19.9500        30
  20.0000        20
  20.0500        23
  20.1000        24
  20.1500        23
  20.2000        19
  20.2500        20
  20.3000        15
  20.3500        21
  20.4000        24
  20.4500        23
  20.5000        26
  20.5500        23
  20.6000        23
  20.6500        25
  20.7000        27
  20.7500        15
  20.8000        26
  20.8500        18
  20.9000        31
  20.9500        25
  21.0000        20
  21.0500        11
  21.1000        19
  21.1500        30
  21.2000        32
  21.2500        22
  21.3000        20
  21.3500        21
  21.4000        27
  21.4500        26
  21.5000        21
  21.5500        30
  21.6000        25
  21.6500        23
  21.7000        26
  21.7500        23
  21.8000        29
  21.8500        37
  21.9000        23
  21.9500        26
  22.0000        25
  22.0500        11
  22.1000        22
  22.1500        28
  22.2000        31
  22.2500        23
  22.3000        32
  22.3500        24
  22.4000        26
  22.4500        24
  22.5000        17
  22.5500        29
  22.6000        22
  22.6500        29
  22.7000        33
  22.7500        21
  22.8000        21
  22.8500        27
  22.9000        34
  22.9500        22
  23.0000        19
  23.0500        33
  23.1000        23
  23.1500        19
  23.2000        30
  23.2500        19
  23.3000        27
  23.3500        24
  23.4000        34
  23.4500        22
  23.5000        32
  23.5500        20
  23.6000        31
  23.6500        30
  23.7000        31
  23.7500        18
  23.8000        23
  23.8500        21
  23.9000        22
  23.9500        24
  24.0000        29
  24.0500        19
  24.1000        27
  24.1500        18
  24.2000        29
  24.2500        20
  24.3000        19
  24.3500        22
  24.4000        17
  24.4500        26
  24.5000        22
  24.5500        24
  24.6000        25
  24.6500        20
  24.7000        28
  24.7500        25
  24.8000        23
  24.8500        23
  24.9000        35
  24.9500        29
  25.0000        25
  25.0500        34
  25.1000        24
  25.1500        31
  25.2000        35
  25.2500        23
  25.3000        21
  25.3500        29
  25.4000        22
  25.4500        23
  25.5000        20
  25.5500        23
  25.6000        23
  25.6500        25
  25.7000        24
  25.7500        24
  25.8000        21
  25.8500        26
  25.9000        27
  25.9500        18
  26.0000        26
  26.0500        29
  26.1000        19
  26.1500        21
  26.2000        33
  26.2500        31
  26.3000        25
  26.3500        22
  26.4000        20
  26.4500        30
  26.5000        26
  26.5500        29
  26.6000        30
  26.6500        33
  26.7000        19
  26.7500        22
  26.8000        16
  26.8500        33
  26.9000        16
  26.9500        27
  27.0000        32
  27.0500        20
  27.1000        23
  27.1500        21
  27.2000        20
  27.2500        30
  27.3000        34
  27.3500        21
  27.4000        26
  27.4500        18
  27.5000        26
  27.5500        25
  27.6000        24
  27.6500        18
  27.7000        28
  27.7500        26
  27.8000        23
  27.8500        17
  27.9000        28
  27.9500        28
  28.0000        24
  28.0500        28
  28.1000        34
  28.1500        32
  28.2000        29
  28.2500        31
  28.3000        23
  28.3500        26
  28.4000        28
  28.4500        22
  28.5000        23
  28.5500        23
  28.6000        15
  28.6500        25
  28.7000        20
  28.7500        18
  28.8000        20
  28.8500        20
  28.9000        20
  28.9500        26
  29.0000        17
  29.0500        27
  29.1000        18
  29.1500        26
  29.2000        26
  29.2500        32
  29.3000        27
  29.3500        20
  29.4000        24
  29.4500        26
  29.5000        27
  29.5500        30
  29.6000        28
  29.6500        26
  29.7000        29
  29.7500        20
  29.8000        30
  29.8500        20
  29.9000        31
  29.9500        29
  30.0000        24
  30.0500        22
  30.1000        25
  30.1500        34
  30.2000        26
  30.2500        22
  30.3000        24
  30.3500        30
  30.4000        26
  30.4500        24
  30.5000        23
  30.5500        25
  30.6000        24
  30.6500        34
  30.7000        22
  30.7500        22
  30.8000        29
  30.8500        28
  30.9000        27
  30.9500        25
  31.0000        29
  31.0500        25
  31.1000        25
  31.1500        23
  31.2000        24
  31.2500        33
  31.3000        26
  31.3500        25
  31.4000        23
  31.4500        27
  31.5000        28
  31.5500        17
  31.6000        27
  31.6500        19
  31.7000        29
  31.7500        29
  31.8000        25
  31.8500        23
  31.9000        28
  31.9500        23
  32.0000        23
  32.0500        35
  32.1000        28
  32.1500        25
  32.2000        26
  32.2500        18
  32.3000        24
  32.3500        32
  32.4000        20
  32.4500        36
  32.5000        22
  32.5500        28
  32.6000        23
  32.6500        31
  32.7000        29
  32.7500        28
  32.8000        29
  32.8500        26
  32.9000        22
  32.9500        23
  33.0000        26
  33.0500        14
  33.1000        24
  33.1500        30
  33.2000        29
  33.2500        24
  33.3000        24
  33.3500        25
  33.4000        23
  33.4500        21
  33.5000        27
  33.5500        22
  33.6000        26
  33.6500        27
  33.7000        29
  33.7500        25
  33.8000        23
  33.8500        17
  33.9000        25
  33.9500        14
  34.0000        29
  34.0500        22
  34.1000        26
  34.1500        17
  34.2000        26
  34.2500        24
  34.3000        22
  34.3500        15
  34.4000        30
  34.4500        16
  34.5000        34
  34.5500        30
  34.6000        26
  34.6500        26
  34.7000        22
  34.7500        28
  34.8000        21
  34.8500        30
  34.9000        29
  34.9500        27
  35.0000        15
  35.0500        25
  35.1000        26
  35.1500        29
  35.2000        21
  35.2500        27
  35.3000        27
  35.3500        26
  35.4000        20
  35.4500        32
  35.5000        28
  35.5500        24
  35.6000        27
  35.6500        18
  35.7000        37
  35.7500        26
  35.8000        20
  35.8500        29
  35.9000        28
  35.9500        28
  36.0000        32
  36.0500        28
  36.1000        23
  36.1500        25
  36.2000        22
  36.2500        31
  36.3000        33
  36.3500        32
  36.4000        27
  36.4500        26
  36.5000        23
  36.5500        25
  36.6000        21
  36.6500        33
  36.7000        17
  36.7500        24
  36.8000        20
  36.8500        28
  36.9000        18
  36.9500        31
  37.0000        25
  37.0500        22
  37.1000        30
  37.1500        28
  37.2000        25
  37.2500        45
  37.3000        26
  37.3500        24
  37.4000        26
  37.4500        34
  37.5000        30
  37.5500        24
  37.6000        17
  37.6500        31
  37.7000        18
  37.7500        25
  37.8000        23
  37.8500        27
  37.9000        23
  37.9500        30
  38.0000        16
  38.0500        30
  38.1000        31
  38.1500        25
  38.2000        25
  38.2500        29
  38.3000        31
  38.3500        35
  38.4000        23
  38.4500        24
  38.5000        26
  38.5500        28
  38.6000        31
  38.6500        35
  38.7000        28
  38.7500        27
  38.8000        26
  38.8500        25
  38.9000        27
  38.9500        27
  39.0000        28
  39.0500        24
  39.1000        20
  39.1500        33
  39.2000        33
  39.2500        32
  39.3000        26
  39.3500        29
  39.4000        31
  39.4500        31
  39.5000        23
  39.5500        29
  39.6000        18
  39.6500        21
  39.7000        33
  39.7500        27
  39.8000        23
  39.8500        17
  39.9000        30
  39.9500        24
  40.0000        26
  40.0500        26
  40.1000        38
  40.1500        22
  40.2000        36
  40.2500        27
  40.3000        22
  40.3500        30
  40.4000        28
  40.4500        26
  40.5000        27
  40.5500        34
  40.6000        21
  40.6500        31
  40.7000        26
  40.7500        28
  40.8000        22
  40.8500        31
  40.9000        22
  40.9500        33
  41.0000        27
  41.0500        28
  41.1000        30
  41.1500        31
  41.2000        28
  41.2500        34
  41.3000        29
  41.3500        28
  41.4000        17
  41.4500        34
  41.5000        22
  41.5500        27
  41.6000        28
  41.6500        30
  41.7000        31
  41.7500        23
  41.8000        28
  41.8500        31
  41.9000        20
  41.9500        38
  42.0000        16
  42.0500        25
  42.1000        17
  42.1500        24
  42.2000        27
  42.2500        37
  42.3000        32
  42.3500        28
  42.4000        34
  42.4500        38
  42.5000        32
  42.5500        33
  42.6000        38
  42.6500        38
  42.7000        45
  42.7500        42
  42.8000        35
  42.8500        45
  42.9000        42
  42.9500        43
  43.0000        31
  43.0500        44
  43.1000        34
  43.1500        42
  43.2000        52
  43.2500        60
  43.3000        61
  43.3500        65
  43.4000        64
  43.4500        58
  43.5000        58
  43.5500        64
  43.6000        68
  43.6500        86
  43.7000        87
  43.7500       121
  43.8000       154
  43.8500       162
  43.9000       256
  43.9500       381
  44.0000       600
  44.0500       830
  44.1000      1116
  44.1500      1553
  44.2000      1800
  44.2500      1951
  44.3000      1807
  44.3500      1503
  44.4000      1074
  44.4500       759
  44.5000       504
  44.5500       346
  44.6000       212
  44.6500       147
  44.7000       130
  44.7500        93
  44.8000        75
  44.8500        86
  44.9000        67
  44.9500        53
  45.0000        52
  45.0500        54
  45.1000        54
  45.1500        37
  45.2000        38
  45.2500        54
  45.3000        43
  45.3500        34
  45.4000        26
  45.4500        45
  45.5000        45
  45.5500        31
  45.6000        34
  45.6500        37
  45.7000        23
  45.7500        36
  45.8000        27
  45.8500        48
  45.9000        34
  45.9500        41
  46.0000        32
  46.0500        26
  46.1000        32
  46.1500        31
  46.2000        28
  46.2500        24
  46.3000        34
  46.3500        32
  46.4000        26
  46.4500        31
  46.5000        33
  46.5500        24
  46.6000        34
  46.6500        24
  46.7000        23
  46.7500        35
  46.8000        26
  46.8500        24
  46.9000        26
  46.9500        26
  47.0000        22
  47.0500        26
  47.1000        23
  47.1500        29
  47.2000        38
  47.2500        29
  47.3000        25
  47.3500        27
  47.4000        39
  47.4500        29
  47.5000        29
  47.5500        30
  47.6000        26
  47.6500        30
  47.7000        26
  47.7500        24
  47.8000        33
  47.8500        31
  47.9000        38
  47.9500        40
  48.0000        23
  48.0500        33
  48.1000        32
  48.1500        21
  48.2000        26
  48.2500        24
  48.3000        29
  48.3500        27
  48.4000        27
  48.4500        35
  48.5000        25
  48.5500        34
  48.6000        20
  48.6500        16
  48.7000        34
  48.7500        27
  48.8000        31
  48.8500        22
  48.9000        27
  48.9500        29
  49.0000        34
  49.0500        28
  49.1000        26
  49.1500        27
  49.2000        22
  49.2500        36
  49.3000        32
  49.3500        31
  49.4000        30
  49.4500        30
  49.5000        25
  49.5500        26
  49.6000        43
  49.6500        30
  49.7000        26
  49.7500        35
  49.8000        37
  49.8500        24
  49.9000        32
  49.9500        34
  50.0000        31
  50.0500        29
  50.1000        51
  50.1500        32
  50.2000        47
  50.2500        45
  50.3000        30
  50.3500        40
  50.4000        28
  50.4500        41
  50.5000        42
  50.5500        42
  50.6000        42
  50.6500        49
  50.7000        55
  50.7500        50
  50.8000        47
  50.8500        55
  50.9000        84
  50.9500        77
  51.0000        96
  51.0500       113
  51.1000       137
  51.1500       159
  51.2000       217
  51.2500       241
  51.3000       353
  51.3500       428
  51.4000       493
  51.4500       612
  51.5000       573
  51.5500       600
  51.6000       577
  51.6500       534
  51.7000       486
  51.7500       393
  51.8000       315
  51.8500       272
  51.9000       191
  51.9500       152
  52.0000       138
  52.0500        86
  52.1000        71
  52.1500        64
  52.2000        55
  52.2500        49
  52.3000        39
  52.3500        55
  52.4000        50
  52.4500        39
  52.5000        40
  52.5500        40
  52.6000        43
  52.6500        33
  52.7000        22
  52.7500        28
  52.8000        33
  52.8500        29
  52.9000        31
  52.9500        35
  53.0000        35
  53.0500        42
  53.1000        33
  53.1500        22
  53.2000        42
  53.2500        35
  53.3000        21
  53.3500        23
  53.4000        29
  53.4500        27
  53.5000        20
  53.5500        32
  53.6000        47
  53.6500        25
  53.7000        21
  53.7500        31
  53.8000        34
  53.8500        24
  53.9000        23
  53.9500        30
  54.0000        26
  54.0500        36
  54.1000        21
  54.1500        24
  54.2000        27
  54.2500        25
  54.3000        21
  54.3500        31
  54.4000        31
  54.4500        28
  54.5000        21
  54.5500        29
  54.6000        31
  54.6500        29
  54.7000        35
  54.7500        28
  54.8000        33
  54.8500        20
  54.9000        35
  54.9500        27
  55.0000        39
  55.0500        26
  55.1000        34
  55.1500        25
  55.2000        29
  55.2500        18
  55.3000        30
  55.3500        28
  55.4000        19
  55.4500        32
  55.5000        18
  55.5500        20
  55.6000        26
  55.6500        31
  55.7000        27
  55.7500        28
  55.8000        27
  55.8500        33
  55.9000        32
  55.9500        28
  56.0000        27
  56.0500        31
  56.1000        21
  56.1500        22
  56.2000        21
  56.2500        22
  56.3000        30
  56.3500        33
  56.4000        26
  56.4500        27
  56.5000        23
  56.5500        26
  56.6000        34
  56.6500        27
  56.7000        37
  56.7500        27
  56.8000        31
  56.8500        24
  56.9000        26
  56.9500        21
  57.0000        29
  57.0500        24
  57.1000        33
  57.1500        30
  57.2000        20
  57.2500        19
  57.3000        28
  57.3500        11
  57.4000        23
  57.4500        29
  57.5000        30
  57.5500        29
  57.6000        26
  57.6500        33
  57.7000        13
  57.7500        26
  57.8000        22
  57.8500        39
  57.9000        32
  57.9500        28
  58.0000        23
  58.0500        22
  58.1000        33
  58.1500        31
  58.2000        33
  58.2500        24
  58.3000        31
  58.3500        22
  58.4000        19
  58.4500        36
  58.5000        35
  58.5500        24
  58.6000        31
  58.6500        22
  58.7000        22
  58.7500        25
  58.8000        23
  58.8500        18
  58.9000        32
  58.9500        29
  59.0000        23
  59.0500        31
  59.1000        35
  59.1500        23
  59.2000        28
  59.2500        19
  59.3000        22
  59.3500        26
  59.4000        32
  59.4500        22
  59.5000        24
  59.5500        27
  59.6000        23
  59.6500        36
  59.7000        22
  59.7500        32
  59.8000        20
  59.8500        22
  59.9000        24
  59.9500        18
  60.0000        26
  60.0500        20
  60.1000        38
  60.1500        16
  60.2000        32
  60.2500        25
  60.3000        25
  60.3500        27
  60.4000        26
  60.4500        37
  60.5000        28
  60.5500        29
  60.6000        29
  60.6500        28
  60.7000        31
  60.7500        19
  60.8000        32
  60.8500        35
  60.9000        27
  60.9500        29
  61.0000        24
  61.0500        31
  61.1000        37
  61.1500        30
  61.2000        24
  61.2500        30
  61.3000        22
  61.3500        30
  61.4000        25
  61.4500        28
  61.5000        23
  61.5500        24
  61.6000        30
  61.6500        26
  61.7000        27
  61.7500        30
  61.8000        15
  61.8500        29
  61.9000        31
  61.9500        28
  62.0000        23
  62.0500        33
  62.1000        22
  62.1500        29
  62.2000        23
  62.2500        16
  62.3000        35
  62.3500        33
  62.4000        19
  62.4500        28
  62.5000        25
  62.5500        21
  62.6000        34
  62.6500        25
  62.7000        25
  62.7500        32
  62.8000        26
  62.8500        29
  62.9000        32
  62.9500        32
  63.0000        26
  63.0500        24
  63.1000        28
  63.1500        21
  63.2000        23
  63.2500        26
  63.3000        24
  63.3500        25
  63.4000        28
  63.4500        28
  63.5000        27
  63.5500        35
  63.6000        12
  63.6500        30
  63.7000        26
  63.7500        26
  63.8000        22
  63.8500        29
  63.9000        23
  63.9500        23
  64.0000        30
  64.0500        25
  64.1000        25
  64.1500        34
  64.2000        29
  64.2500        22
  64.3000        34
  64.3500        25
  64.4000        27
  64.4500        26
  64.5000        18
  64.5500        30
  64.6000        21
  64.6500        18
  64.7000        37
  64.7500        26
  64.8000        37
  64.8500        27
  64.9000        19
  64.9500        30
  65.0000        29
  65.0500        19
  65.1000        33
  65.1500        24
  65.2000        26
  65.2500        25
  65.3000        28
  65.3500        23
  65.4000        30
  65.4500        33
  65.5000        29
  65.5500        28
  65.6000        27
  65.6500        30
  65.7000        21
  65.7500        29
  65.8000        26
  65.8500        29
  65.9000        29
  65.9500        39
  66.0000        22
  66.0500        26
  66.1000        40
  66.1500        33
  66.2000        31
  66.2500        21
  66.3000        23
  66.3500        25
  66.4000        17
  66.4500        29
  66.5000        19
  66.5500        22
  66.6000        35
  66.6500        30
  66.7000        33
  66.7500        24
  66.8000        27
  66.8500        29
  66.9000        24
  66.9500        29
  67.0000        19
  67.0500        35
  67.1000        23
  67.1500        31
  67.2000        33
  67.2500        21
  67.3000        27
  67.3500        25
  67.4000        22
  67.4500        21
  67.5000        24
  67.5500        25
  67.6000        19
  67.6500        21
  67.7000        27
  67.7500        24
  67.8000        25
  67.8500        37
  67.9000        22
  67.9500        36
  68.0000        23
  68.0500        28
  68.1000        39
  68.1500        19
  68.2000        26
  68.2500        26
  68.3000        26
  68.3500        25
  68.4000        30
  68.4500        27
  68.5000        23
  68.5500        21
  68.6000        23
  68.6500        27
  68.7000        22
  68.7500        20
  68.8000        26
  68.8500        24
  68.9000        36
  68.9500        33
  69.0000        27
  69.0500        29
  69.1000        29
  69.1500        23
  69.2000        28
  69.2500        26
  69.3000        24
  69.3500        32
  69.4000        31
  69.4500        23
  69.5000        27
  69.5500        22
  69.6000        25
  69.6500        26
  69.7000        31
  69.7500        29
  69.8000        23
  69.8500        23
  69.9000        24
  69.9500        28
  70.0000        21
  70.0500        25
  70.1000        26
  70.1500        31
  70.2000        39
  70.2500        31
  70.3000        30
  70.3500        29
  70.4000        24
  70.4500        35
  70.5000        34
  70.5500        26
  70.6000        20
  70.6500        19
  70.7000        26
  70.7500        29
  70.8000        27
  70.8500        28
  70.9000        19
  70.9500        35
  71.0000        27
  71.0500        17
  71.1000        23
  71.1500        34
  71.2000        32
  71.2500        28
  71.3000        21
  71.3500        33
  71.4000        26
  71.4500        22
  71.5000        29
  71.5500        20
  71.6000        26
  71.6500        34
  71.7000        34
  71.7500        25
  71.8000        20
  71.8500        23
  71.9000        20
  71.9500        28
  72.0000        25
  72.0500        30
  72.1000        33
  72.1500        31
  72.2000        25
  72.2500        21
  72.3000        40
  72.3500        26
  72.4000        18
  72.4500        25
  72.5000        26
  72.5500        18
  72.6000        25
  72.6500        26
  72.7000        21
  72.7500        31
  72.8000        25
  72.8500        20
  72.9000        24
  72.9500        26
  73.0000        26
  73.0500        29
  73.1000        36
  73.1500        31
  73.2000        31
  73.2500        24
  73.3000        30
  73.3500        24
  73.4000        17
  73.4500        39
  73.5000        31
  73.5500        37
  73.6000        24
  73.6500        32
  73.7000        30
  73.7500        33
  73.8000        29
  73.8500        20
  73.9000        24
  73.9500        33
  74.0000        23
  74.0500        25
  74.1000        30
  74.1500        36
  74.2000        24
  74.2500        32
  74.3000        23
  74.3500        29
  74.4000        20
  74.4500        32
  74.5000        24
  74.5500        34
  74.6000        37
  74.6500        39
  74.7000        40
  74.7500        34
  74.8000        45
  74.8500        39
  74.9000        47
  74.9500        35
  75.0000        35
  75.0500        32
  75.1000        52
  75.1500        39
  75.2000        51
  75.2500        54
  75.3000        70
  75.3500        68
  75.4000        64
  75.4500        75
  75.5000       120
  75.5500       103
  75.6000       133
  75.6500       158
  75.7000       191
  75.7500       254
  75.8000       238
  75.8500       245
  75.9000       246
  75.9500       265
  76.0000       244
  76.0500       238
  76.1000       214
  76.1500       195
  76.2000       146
  76.2500       130
  76.3000       116
  76.3500       110
  76.4000        74
  76.4500        84
  76.5000        67
  76.5500        60
  76.6000        48
  76.6500        36
  76.7000        42
  76.7500        49
  76.8000        47
  76.8500        35
  76.9000        36
  76.9500        38
  77.0000        31
  77.0500        31
  77.1000        22
  77.1500        27
  77.2000        43
  77.2500        34
  77.3000        34
  77.3500        23
  77.4000        21
  77.4500        25
  77.5000        32
  77.5500        35
  77.6000        30
  77.6500        24
  77.7000        20
  77.7500        33
  77.8000        32
  77.8500        27
  77.9000        18
  77.9500        30
  78.0000        23
  78.0500        25
  78.1000        39
  78.1500        42
  78.2000        35
  78.2500        28
  78.3000        27
  78.3500        31
  78.4000        30
  78.4500        30
  78.5000        28
  78.5500        29
  78.6000        41
  78.6500        26
  78.7000        28
  78.7500        29
  78.8000        32
  78.8500        28
  78.9000        20
  78.9500        36
  79.0000        27
  79.0500        29
  79.1000        27
  79.1500        20
  79.2000        22
  79.2500        28
  79.3000        35
  79.3500        25
  79.4000        14
  79.4500        33
  79.5000        18
  79.5500        31
  79.6000        32
  79.6500        29
  79.7000        27
  79.7500        30
  79.8000        27
  79.8500        33
  79.9000        39
  79.9500        29
  80.0000        27
  80.0500        19
  80.1000        32
  80.1500        31
  80.2000        23
  80.2500        30
  80.3000        33
  80.3500        24
  80.4000        28
  80.4500        34
  80.5000        30
  80.5500        27
  80.6000        25
  80.6500        16
  80.7000        30
  80.7500        33
  80.8000        26
  80.8500        25
  80.9000        30
  80.9500        20
  81.0000        39
  81.0500        22
  81.1000        18
  81.1500        29
  81.2000        24
  81.2500        21
  81.3000        37
  81.3500        29
  81.4000        20
  81.4500        25
  81.5000        31
  81.5500        20
  81.6000        26
  81.6500        30
  81.7000        30
  81.7500        25
  81.8000        25
  81.8500        26
  81.9000        26
  81.9500        27
  82.0000        32
  82.0500        22
  82.1000        24
  82.1500        36
  82.2000        28
  82.2500        40
  82.3000        23
  82.3500        27
  82.4000        30
  82.4500        26
  82.5000        25
  82.5500        26
  82.6000        29
  82.6500        18
  82.7000        26
  82.7500        19
  82.8000        26
  82.8500        34
  82.9000        28
  82.9500        33
  83.0000        28
  83.0500        34
  83.1000        25
  83.1500        25
  83.2000        23
  83.2500        29
  83.3000        24
  83.3500        39
  83.4000        33
  83.4500        22
  83.5000        41
  83.5500        21
  83.6000        35
  83.6500        21
  83.7000        35
  83.7500        28
  83.8000        33
  83.8500        26
  83.9000        39
  83.9500        17
  84.0000        33
  84.0500        31
  84.1000        24
  84.1500        24
  84.2000        23
  84.2500        35
  84.3000        22
  84.3500        18
  84.4000        27
  84.4500        30
  84.5000        28
  84.5500        26
  84.6000        27
  84.6500        29
  84.7000        21
  84.7500        26
  84.8000        38
  84.8500        28
  84.9000        32
  84.9500        34
  85.0000        35
  85.0500        32
  85.1000        26
  85.1500        24
  85.2000        22
  85.2500        25
  85.3000        31
  85.3500        42
  85.4000        34
  85.4500        28
  85.5000        27
  85.5500        24
  85.6000        23
  85.6500        26
  85.7000        28
  85.7500        26
  85.8000        24
  85.8500        32
  85.9000        32
  85.9500        35
  86.0000        25
  86.0500        29
  86.1000        35
  86.1500        37
  86.2000        28
  86.2500        27
  86.3000        38
  86.3500        26
  86.4000        26
  86.4500        26
  86.5000        27
  86.5500        38
  86.6000        31
  86.6500        38
  86.7000        25
  86.7500        24
  86.8000        37
  86.8500        27
  86.9000        29
  86.9500        19
  87.0000        28
  87.0500        22
  87.1000        22
  87.1500        35
  87.2000        29
  87.2500        31
  87.3000        26
  87.3500        31
  87.4000        33
  87.4500        29
  87.5000        28
  87.5500        34
  87.6000        23
  87.6500        31
  87.7000        31
  87.7500        31
  87.8000        29
  87.8500        31
  87.9000        38
  87.9500        25
  88.0000        30
  88.0500        51
  88.1000        22
  88.1500        24
  88.2000        25
  88.2500        35
  88.3000        26
  88.3500        27
  88.4000        32
  88.4500        51
  88.5000        30
  88.5500        25
  88.6000        30
  88.6500        38
  88.7000        26
  88.7500        26
  88.8000        33
  88.8500        35
  88.9000        19
  88.9500        24
  89.0000        39
  89.0500        30
  89.1000        32
  89.1500        25
  89.2000        31
  89.2500        27
  89.3000        44
  89.3500        37
  89.4000        33
  89.4500        50
  89.5000        25
  89.5500        34
  89.6000        20
  89.6500        28
  89.7000        36
  89.7500        40
  89.8000        32
  89.8500        45
  89.9000        29
  89.9500        35
  90.0000        25
  90.0500        26
  90.1000        35
  90.1500        27
  90.2000        50
  90.2500        28
  90.3000        20
  90.3500        25
  90.4000        34
  90.4500        40
  90.5000        25
  90.5500        34
  90.6000        27
  90.6500        53
  90.7000        30
  90.7500        41
  90.8000        30
  90.8500        36
  90.9000        29
  90.9500        32
  91.0000        38
  91.0500        47
  91.1000        38
  91.1500        36
  91.2000        37
  91.2500        50
  91.3000        47
  91.3500        48
  91.4000        55
  91.4500        42
  91.5000        52
  91.5500        58
  91.6000        63
  91.6500        74
  91.7000        89
  91.7500       106
  91.8000       115
  91.8500       116
  91.9000       127
  91.9500       142
  92.0000       140
  92.0500       166
  92.1000       202
  92.1500       234
  92.2000       225
  92.2500       197
  92.3000       214
  92.3500       236
  92.4000       245
  92.4500       204
  92.5000       209
  92.5500       177
  92.6000       179
  92.6500       153
  92.7000       152
  92.7500       157
  92.8000       131
  92.8500        96
  92.9000        94
  92.9500        69
  93.0000        78
  93.0500        67
  93.1000        57
  93.1500        49
  93.2000        61
  93.2500        40
  93.3000        51
  93.3500        39
  93.4000        43
  93.4500        37
  93.5000        37
  93.5500        39
  93.6000        33
  93.6500        29
  93.7000        40
  93.7500        32
  93.8000        41
  93.8500        36
  93.9000        43
  93.9500        43
  94.0000        37
  94.0500        44
  94.1000        34
  94.1500        22
  94.2000        33
  94.2500        35
  94.3000        23
  94.3500        40
  94.4000        31
  94.4500        39
  94.5000        25
  94.5500        26
  94.6000        31
  94.6500        29
  94.7000        35
  94.7500        35
  94.8000        35
  94.8500        31
  94.9000        38
  94.9500        28
  95.0000        35
  95.0500        35
  95.1000        38
  95.1500        30
  95.2000        24
  95.2500        31
  95.3000        28
  95.3500        24
  95.4000        19
  95.4500        31
  95.5000        30
  95.5500        23
  95.6000        36
  95.6500        22
  95.7000        31
  95.7500        30
  95.8000        33
  95.8500        27
  95.9000        39
  95.9500        35
  96.0000        29
  96.0500        29
  96.1000        26
  96.1500        35
  96.2000        33
  96.2500        33
  96.3000        31
  96.3500        35
  96.4000        26
  96.4500        22
  96.5000        30
  96.5500        24
  96.6000        25
  96.6500        32
  96.7000        27
  96.7500        28
  96.8000        34
  96.8500        33
  96.9000        32
  96.9500        32
  97.0000        50
  97.0500        47
  97.1000        40
  97.1500        57
  97.2000        49
  97.2500        51
  97.3000        47
  97.3500        44
  97.4000        64
  97.4500        66
  97.5000        68
  97.5500        67
  97.6000       100
  97.6500        83
  97.7000       103
  97.7500        93
  97.8000        91
  97.8500        96
  97.9000        97
  97.9500        89
  98.0000        87
  98.0500        68
  98.1000        78
  98.1500        68
  98.2000        64
  98.2500        50
  98.3000        52
  98.3500        49
  98.4000        32
  98.4500        48
  98.5000        32
  98.5500        36
  98.6000        22
  98.6500        31
  98.7000        31
  98.7500        35
  98.8000        36
  98.8500        30
  98.9000        30
  98.9500        21
  99.0000        37
  99.0500        35
  99.1000        31
  99.1500        34
  99.2000        31
  99.2500        32
  99.3000        30
  99.3500        41
  99.4000        24
  99.4500        29
  99.5000        25
  99.5500        18
  99.6000        32
  99.6500        21
  99.7000        32
  99.7500        36
  99.8000        22
  99.8500        31
  99.9000        32
  99.9500        26
 100.0000        28
 100.0500        36
 100.1000        29
 100.1500        19
 100.2000        34
 100.2500        36
 100.3000        28
 100.3500        38
 100.4000        29
 100.4500        28
 100.5000        38
 100.5500        36
 100.6000        22
 100.6500        26
 100.7000        42
 100.7500        31
 100.8000        31
 100.8500        22
 100.9000        29
 100.9500        26
 101.0000        31
 101.0500        37
 101.1000        26
 101.1500        38
 101.2000        31
 101.2500        35
 101.3000        15
 101.3500        31
 101.4000        33
 101.4500        27
 101.5000        25
 101.5500        39
 101.6000        30
 101.6500        37
 101.7000        29
 101.7500        18
 101.8000        28
 101.8500        34
 101.9000        30
 101.9500        27
 102.0000        29
 102.0500        28
 102.1000        22
 102.1500        27
 102.2000        31
 102.2500        28
 102.3000        33
 102.3500        17
 102.4000        31
 102.4500        31
 102.5000        29
 102.5500        22
 102.6000        22
 102.6500        41
 102.7000        38
 102.7500        33
 102.8000        35
 102.8500        28
 102.9000        36
 102.9500        19
 103.0000        32
 103.0500        16
 103.1000        32
 103.1500        18
 103.2000        21
 103.2500        25
 103.3000        33
 103.3500        29
 103.4000        22
 103.4500        31
 103.5000        41
 103.5500        32
 103.6000        37
 103.6500        34
 103.7000        29
 103.7500        30
 103.8000        35
 103.8500        21
 103.9000        36
 103.9500        37
 104.0000        23
 104.0500        32
 104.1000        34
 104.1500        32
 104.2000        26
 104.2500        27
 104.3000        37
 104.3500        25
 104.4000        36
 104.4500        30
 104.5000        34
 104.5500        25
 104.6000        29
 104.6500        25
 104.7000        24
 104.7500        25
 104.8000        35
 104.8500        31
 104.9000        32
 104.9500        31
 105.0000        32
 105.0500        30
 105.1000        32
 105.1500        20
 105.2000        32
 105.2500        29
 105.3000        25
 105.3500        23
 105.4000        21
 105.4500        25
 105.5000        34
 105.5500        28
 105.6000        31
 105.6500        33
 105.7000        29
 105.7500        28
 105.8000        21
 105.8500        42
 105.9000        25
 105.9500        27
 106.0000        28
 106.0500        29
 106.1000        18
 106.1500        35
 106.2000        28
 106.2500        21
 106.3000        42
 106.3500        30
 106.4000        43
 106.4500        26
 106.5000        27
 106.5500        24
 106.6000        34
 106.6500        26
 106.7000        25
 106.7500        29
 106.8000        30
 106.8500        25
 106.9000        25
 106.9500        26
 107.0000        22
 107.0500        30
 107.1000        25
 107.1500        31
 107.2000        26
 107.2500        29
 107.3000        22
 107.3500        27
 107.4000        22
 107.4500        32
 107.5000        20
 107.5500        27
 107.6000        37
 107.6500        30
 107.7000        28
 107.7500        29
 107.8000        27
 107.8500        26
 107.9000        30
 107.9500        26
 108.0000        30
 108.0500        21
 108.1000        31
 108.1500        31
 108.2000        37
 108.2500        27
 108.3000        22
 108.3500        26
 108.4000        21
 108.4500        30
 108.5000        29
 108.5500        22
 108.6000        30
 108.6500        38
 108.7000        26
 108.7500        34
 108.8000        27
 108.8500        21
 108.9000        29
 108.9500        24
 109.0000        28
 109.0500        37
 109.1000        27
 109.1500        38
 109.2000        29
 109.2500        27
 109.3000        27
 109.3500        25
 109.4000        23
 109.4500        19
 109.5000        42
 109.5500        24
 109.6000        19
 109.6500        23
 109.7000        34
 109.7500        24
 109.8000        23
 109.8500        24
 109.9000        28
 109.9500        22
 110.0000        40
