  10.0000        31
  10.0500        28
  10.1000        30
  10.1500        32
  10.2000        23
  10.2500        32
  10.3000        33
  10.3500        22
  10.4000        36
  10.4500        32
  10.5000        25
  10.5500        24
  10.6000        23
  10.6500        28
  10.7000        31
  10.7500        30
  10.8000        30
  10.8500        36
  10.9000        26
  10.9500        21
  11.0000        23
  11.0500        27
  11.1000        24
  11.1500        21
  11.2000        29
  11.2500        25
  11.3000        29
  11.3500        24
  11.4000        25
  11.4500        29
  11.5000        23
  11.5500        24
  11.6000        32
  11.6500        31
  11.7000        34
  11.7500        18
  11.8000        28
  11.8500        20
  11.9000        29
  11.9500        22
  12.0000        26
  12.0500        32
  12.1000        27
  12.1500        24
  12.2000        26
  12.2500        20
  12.3000        26
  12.3500        23
  12.4000        27
  12.4500        29
  12.5000        20
  12.5500        25
  12.6000        21
  12.6500        22
  12.7000        19
  12.7500        29
  12.8000        23
  12.8500        19
  12.9000        30
  12.9500        39
  13.0000        28
  13.0500        20
  13.1000        29
  13.1500        24
  13.2000        22
  13.2500        25
  13.3000        28
  13.3500        25
  13.4000        27
  13.4500        25
  13.5000        22
  13.5500        30
  13.6000        17
  13.6500        28
  13.7000        24
  13.7500        22
  13.8000        22
  13.8500        33
  13.9000        28
  13.9500        25
  14.0000        25
  14.0500        23
  14.1000        22
  14.1500        25
  14.2000        25
  14.2500        22
  14.3000        16
  14.3500        15
  14.4000        35
  14.4500        23
  14.5000        27
  14.5500        23
  14.6000        28
  14.6500        28
  14.7000        24
  14.7500        24
  14.8000        32
  14.8500        26
  14.9000        29
  14.9500        19
  15.0000        31
  15.0500        22
  15.1000        24
  15.1500        26
  15.2000        25
  15.2500        20
  15.3000        22
  15.3500        28
  15.4000        43
  15.4500        20
  15.5000        26
  15.5500        27
  15.6000        28
  15.6500        15
  15.7000        32
  15.7500        20
  15.8000        28
  15.8500        21
  15.9000        28
  15.9500        24
  16.0000        22
  16.0500        26
  16.1000        35
  16.1500        20
  16.2000        21
  16.2500        23
  16.3000        22
  16.3500        26
  16.4000        20
  16.4500        25
  16.5000        28
  16.5500        16
  16.6000        25
  16.6500        36
  16.7000        28
  16.7500        22
  16.8000        27
  16.8500        19
  16.9000        16
  16.9500        20
  17.0000        21
  17.0500        27
  17.1000        22
  17.1500        23
  17.2000        23
  17.2500        30
  17.3000        28
  17.3500        12
  17.4000        22
  17.4500        23
  17.5000        22
  17.5500        20
  17.6000        30
  17.6500        20
  17.7000        23
  17.7500        30
  17.8000        26
  17.8500        24
  17.9000        21
  17.9500        26
  18.0000        26
  18.0500        29
  18.1000        23
  18.1500        26
  18.2000        30
  18.2500        27
  18.3000        24
  18.3500        27
  18.4000        31
  18.4500        19
  18.5000        27
  18.5500        28
  18.6000        11
  18.6500        24
  18.7000        21
  18.7500        26
  18.8000        26
  18.8500        25
  18.9000        19
  18.9500        26
  19.0000        22
  19.0500        30
  19.1000        27
  19.1500        26
  19.2000        38
  19.2500        15
  19.3000        17
  19.3500        24
  19.4000        27
  19.4500        26
  19.5000        29
  19.5500        26
  19.6000        22
  19.6500        22
  19.7000        25
  19.7500        16
  19.8000        20
  19.8500        21
  19.9000        20
  19.9500        24
  20.0000        28
  20.0500        29
  20.1000        26
  20.1500        26
  20.2000        21
  20.2500        25
  20.3000        25
  20.3500        20
  20.4000        25
  20.4500        22
  20.5000        25
  20.5500        22
  20.6000        27
  20.6500        13
  20.7000        19
  20.7500        17
  20.8000        14
  20.8500        23
  20.9000        28
  20.9500        21
  21.0000        19
  21.0500        28
  21.1000        24
  21.1500        17
  21.2000        29
  21.2500        29
  21.3000        21
  21.3500        19
  21.4000        22
  21.4500        19
  21.5000        23
  21.5500        21
  21.6000        21
  21.6500        25
  21.7000        17
  21.7500        23
  21.8000        26
  21.8500        20
  21.9000        22
  21.9500        34
  22.0000        23
  22.0500        21
  22.1000        18
  22.1500        27
  22.2000        20
  22.2500        24
  22.3000        29
  22.3500        21
  22.4000        26
  22.4500        19
  22.5000        21
  22.5500        18
  22.6000        27
  22.6500        16
  22.7000        25
  22.7500        17
  22.8000        24
  22.8500        19
  22.9000        24
  22.9500        34
  23.0000        27
  23.0500        22
  23.1000        29
  23.1500        23
  23.2000        29
  23.2500        18
  23.3000        22
  23.3500        24
  23.4000        21
  23.4500        19
  23.5000        26
  23.5500        24
  23.6000        19
  23.6500        16
  23.7000        24
  23.7500        20
  23.8000        22
  23.8500        21
  23.9000        28
  23.9500        27
  24.0000        26
  24.0500        28
  24.1000        21
  24.1500        14
  24.2000        13
  24.2500        21
  24.3000        24
  24.3500        20
  24.4000        32
  24.4500        24
  24.5000        14
  24.5500        18
  24.6000        20
  24.6500        26
  24.7000        29
  24.7500        21
  24.8000        23
  24.8500        26
  24.9000        16
  24.9500        21
  25.0000        29
  25.0500        19
  25.1000        20
  25.1500        17
  25.2000        18
  25.2500        16
  25.3000        13
  25.3500        23
  25.4000        21
  25.4500        24
  25.5000        16
  25.5500        25
  25.6000        21
  25.6500        30
  25.7000        25
  25.7500        22
  25.8000        22
  25.8500        21
  25.9000        27
  25.9500        21
  26.0000        21
  26.0500        28
  26.1000        23
  26.1500        30
  26.2000        18
  26.2500        20
  26.3000        22
  26.3500        18
  26.4000        25
  26.4500        19
  26.5000        16
  26.5500        19
  26.6000        21
  26.6500        29
  26.7000        22
  26.7500        18
  26.8000        23
  26.8500        26
  26.9000        16
  26.9500        19
  27.0000        22
  27.0500        26
  27.1000        19
  27.1500        22
  27.2000        21
  27.2500        14
  27.3000        19
  27.3500        24
  27.4000        20
  27.4500        22
  27.5000        17
  27.5500        24
  27.6000        16
  27.6500        28
  27.7000        21
  27.7500        16
  27.8000        22
  27.8500        22
  27.9000        23
  27.9500        19
  28.0000        18
  28.0500        20
  28.1000        25
  28.1500        24
  28.2000        24
  28.2500        25
  28.3000        15
  28.3500        17
  28.4000        26
  28.4500        23
  28.5000        26
  28.5500        22
  28.6000        23
  28.6500        22
  28.7000        18
  28.7500        20
  28.8000        26
  28.8500        19
  28.9000        26
  28.9500        27
  29.0000        26
  29.0500        14
  29.1000        13
  29.1500        25
  29.2000        20
  29.2500        30
  29.3000        15
  29.3500        20
  29.4000        18
  29.4500        21
  29.5000        20
  29.5500        25
  29.6000        23
  29.6500        23
  29.7000        21
  29.7500        26
  29.8000        23
  29.8500        24
  29.9000        19
  29.9500        20
  30.0000        22
  30.0500        20
  30.1000        31
  30.1500        28
  30.2000        17
  30.2500        26
  30.3000        23
  30.3500        20
  30.4000        18
  30.4500        20
  30.5000        19
  30.5500        21
  30.6000        24
  30.6500        27
  30.7000        28
  30.7500        30
  30.8000        25
  30.8500        21
  30.9000        28
  30.9500        14
  31.0000        19
  31.0500        20
  31.1000        21
  31.1500        32
  31.2000        29
  31.2500        22
  31.3000        20
  31.3500        14
  31.4000        23
  31.4500        22
  31.5000        31
  31.5500        31
  31.6000        27
  31.6500        18
  31.7000        33
  31.7500        21
  31.8000        21
  31.8500        26
  31.9000        16
  31.9500        23
  32.0000        23
  32.0500        28
  32.1000        16
  32.1500        21
  32.2000        27
  32.2500        15
  32.3000        19
  32.3500        23
  32.4000        21
  32.4500        17
  32.5000        26
  32.5500        26
  32.6000        23
  32.6500        17
  32.7000        21
  32.7500        18
  32.8000        12
  32.8500        20
  32.9000        23
  32.9500        17
  33.0000        21
  33.0500        19
  33.1000        14
  33.1500        20
  33.2000        13
  33.2500        20
  33.3000        19
  33.3500        22
  33.4000        28
  33.4500        18
  33.5000        18
  33.5500        13
  33.6000        20
  33.6500        21
  33.7000        25
  33.7500        22
  33.8000        13
  33.8500        21
  33.9000        22
  33.9500        16
  34.0000        23
  34.0500        34
  34.1000        27
  34.1500        23
  34.2000        17
  34.2500        21
  34.3000        27
  34.3500        21
  34.4000        29
  34.4500        23
  34.5000        22
  34.5500        25
  34.6000        21
  34.6500        26
  34.7000        14
  34.7500        28
  34.8000        28
  34.8500        24
  34.9000        14
  34.9500        12
  35.0000        17
  35.0500        19
  35.1000        29
  35.1500        21
  35.2000        18
  35.2500        16
  35.3000        20
  35.3500        14
  35.4000        20
  35.4500        31
  35.5000        20
  35.5500        29
  35.6000        17
  35.6500        23
  35.7000        24
  35.7500        28
  35.8000        26
  35.8500        24
  35.9000        30
  35.9500        29
  36.0000        18
  36.0500        19
  36.1000        25
  36.1500        17
  36.2000        24
  36.2500        25
  36.3000        16
  36.3500        25
  36.4000        25
  36.4500        20
  36.5000        26
  36.5500        22
  36.6000        30
  36.6500        16
  36.7000        19
  36.7500        23
  36.8000        26
  36.8500        29
  36.9000        39
  36.9500        21
  37.0000        25
  37.0500        31
  37.1000        25
  37.1500        29
  37.2000        32
  37.2500        28
  37.3000        33
  37.3500        31
  37.4000        29
  37.4500        27
  37.5000        23
  37.5500        28
  37.6000        29
  37.6500        27
  37.7000        38
  37.7500        26
  37.8000        19
  37.8500        31
  37.9000        30
  37.9500        26
  38.0000        23
  38.0500        20
  38.1000        20
  38.1500        26
  38.2000        22
  38.2500        29
  38.3000        24
  38.3500        33
  38.4000        24
  38.4500        28
  38.5000        29
  38.5500        24
  38.6000        35
  38.6500        22
  38.7000        26
  38.7500        21
  38.8000        27
  38.8500        24
  38.9000        18
  38.9500        29
  39.0000        22
  39.0500        25
  39.1000        23
  39.1500        24
  39.2000        24
  39.2500        24
  39.3000        16
  39.3500        24
  39.4000        19
  39.4500        20
  39.5000        24
  39.5500        29
  39.6000        28
  39.6500        18
  39.7000        17
  39.7500        28
  39.8000        19
  39.8500        24
  39.9000        21
  39.9500        16
  40.0000        31
  40.0500        23
  40.1000        20
  40.1500        26
  40.2000        22
  40.2500        19
  40.3000        23
  40.3500        29
  40.4000        22
  40.4500        36
  40.5000        19
  40.5500        24
  40.6000        24
  40.6500        26
  40.7000        25
  40.7500        28
  40.8000        30
  40.8500        34
  40.9000        23
  40.9500        22
  41.0000        20
  41.0500        31
  41.1000        25
  41.1500        27
  41.2000        21
  41.2500        32
  41.3000        33
  41.3500        28
  41.4000        27
  41.4500        33
  41.5000        25
  41.5500        28
  41.6000        36
  41.6500        32
  41.7000        25
  41.7500        23
  41.8000        41
  41.8500        32
  41.9000        28
  41.9500        30
  42.0000        31
  42.0500        31
  42.1000        29
  42.1500        29
  42.2000        39
  42.2500        31
  42.3000        40
  42.3500        29
  42.4000        32
  42.4500        29
  42.5000        40
  42.5500        46
  42.6000        48
  42.6500        47
  42.7000        47
  42.7500        42
  42.8000        58
  42.8500        46
  42.9000        46
  42.9500        51
  43.0000        56
  43.0500        62
  43.1000        64
  43.1500        60
  43.2000        64
  43.2500        75
  43.3000       107
  43.3500       112
  43.4000       129
  43.4500       126
  43.5000       151
  43.5500       226
  43.6000       284
  43.6500       439
  43.7000       546
  43.7500       782
  43.8000      1032
  43.8500      1404
  43.9000      1702
  43.9500      1843
  44.0000      1945
  44.0500      1755
  44.1000      1521
  44.1500      1172
  44.2000       836
  44.2500       541
  44.3000       390
  44.3500       274
  44.4000       182
  44.4500       149
  44.5000       116
  44.5500       100
  44.6000        78
  44.6500        69
  44.7000        63
  44.7500        63
  44.8000        62
  44.8500        45
  44.9000        53
  44.9500        43
  45.0000        32
  45.0500        44
  45.1000        43
  45.1500        43
  45.2000        38
  45.2500        39
  45.3000        44
  45.3500        37
  45.4000        28
  45.4500        40
  45.5000        39
  45.5500        43
  45.6000        23
  45.6500        33
  45.7000        26
  45.7500        32
  45.8000        35
  45.8500        26
  45.9000        31
  45.9500        44
  46.0000        31
  46.0500        20
  46.1000        34
  46.1500        27
  46.2000        23
  46.2500        32
  46.3000        25
  46.3500        30
  46.4000        28
  46.4500        26
  46.5000        28
  46.5500        23
  46.6000        34
  46.6500        26
  46.7000        23
  46.7500        33
  46.8000        25
  46.8500        33
  46.9000        27
  46.9500        24
  47.0000        21
  47.0500        23
  47.1000        34
  47.1500        33
  47.2000        28
  47.2500        37
  47.3000        27
  47.3500        28
  47.4000        35
  47.4500        20
  47.5000        33
  47.5500        28
  47.6000        25
  47.6500        28
  47.7000        16
  47.7500        21
  47.8000        31
  47.8500        24
  47.9000        22
  47.9500        21
  48.0000        20
  48.0500        29
  48.1000        33
  48.1500        29
  48.2000        24
  48.2500        22
  48.3000        30
  48.3500        30
  48.4000        23
  48.4500        24
  48.5000        24
  48.5500        22
  48.6000        17
  48.6500        23
  48.7000        20
  48.7500        25
  48.8000        23
  48.8500        23
  48.9000        21
  48.9500        25
  49.0000        24
  49.0500        29
  49.1000        18
  49.1500        30
  49.2000        32
  49.2500        24
  49.3000        33
  49.3500        32
  49.4000        29
  49.4500        29
  49.5000        29
  49.5500        32
  49.6000        29
  49.6500        31
  49.7000        31
  49.7500        33
  49.8000        23
  49.8500        35
  49.9000        38
  49.9500        33
  50.0000        32
  50.0500        41
  50.1000        35
  50.1500        48
  50.2000        45
  50.2500        30
  50.3000        45
  50.3500        47
  50.4000        55
  50.4500        60
  50.5000        71
  50.5500        72
  50.6000        78
  50.6500        83
  50.7000       122
  50.7500       136
  50.8000       184
  50.8500       203
  50.9000       260
  50.9500       324
  51.0000       349
  51.0500       433
  51.1000       501
  51.1500       563
  51.2000       581
  51.2500       607
  51.3000       551
  51.3500       506
  51.4000       475
  51.4500       389
  51.5000       353
  51.5500       261
  51.6000       188
  51.6500       169
  51.7000       110
  51.7500       101
  51.8000        87
  51.8500        71
  51.9000        56
  51.9500        58
  52.0000        56
  52.0500        39
  52.1000        52
  52.1500        48
  52.2000        34
  52.2500        31
  52.3000        27
  52.3500        39
  52.4000        28
  52.4500        40
  52.5000        26
  52.5500        29
  52.6000        28
  52.6500        43
  52.7000        29
  52.7500        34
  52.8000        36
  52.8500        30
  52.9000        38
  52.9500        20
  53.0000        25
  53.0500        28
  53.1000        24
  53.1500        24
  53.2000        25
  53.2500        38
  53.3000        22
  53.3500        25
  53.4000        21
  53.4500        22
  53.5000        19
  53.5500        13
  53.6000        23
  53.6500        24
  53.7000        24
  53.7500        24
  53.8000        20
  53.8500        24
  53.9000        17
  53.9500        27
  54.0000        19
  54.0500        25
  54.1000        33
  54.1500        28
  54.2000        23
  54.2500        24
  54.3000        27
  54.3500        23
  54.4000        18
  54.4500        31
  54.5000        24
  54.5500        26
  54.6000        17
  54.6500        24
  54.7000        27
  54.7500        22
  54.8000        21
  54.8500        26
  54.9000        16
  54.9500        31
  55.0000        25
  55.0500        18
  55.1000        24
  55.1500        14
  55.2000        32
  55.2500        17
  55.3000        29
  55.3500        26
  55.4000        21
  55.4500        21
  55.5000        25
  55.5500        23
  55.6000        26
  55.6500        23
  55.7000        23
  55.7500        23
  55.8000        21
  55.8500        25
  55.9000        20
  55.9500        27
  56.0000        20
  56.0500        23
  56.1000        31
  56.1500        23
  56.2000        21
  56.2500        18
  56.3000        26
  56.3500        24
  56.4000        24
  56.4500        21
  56.5000        21
  56.5500        20
  56.6000        41
  56.6500        29
  56.7000        23
  56.7500        24
  56.8000        12
  56.8500        21
  56.9000        19
  56.9500        24
  57.0000        38
  57.0500        26
  57.1000        21
  57.1500        33
  57.2000        28
  57.2500        21
  57.3000        15
  57.3500        26
  57.4000        22
  57.4500        23
  57.5000        33
  57.5500        27
  57.6000        23
  57.6500        27
  57.7000        20
  57.7500        30
  57.8000        23
  57.8500        24
  57.9000        24
  57.9500        19
  58.0000        22
  58.0500        17
  58.1000        29
  58.1500        24
  58.2000        23
  58.2500        23
  58.3000        13
  58.3500        25
  58.4000        22
  58.4500        25
  58.5000        18
  58.5500        21
  58.6000        21
  58.6500        24
  58.7000        19
  58.7500        18
  58.8000        18
  58.8500        25
  58.9000        27
  58.9500        16
  59.0000        23
  59.0500        25
  59.1000        24
  59.1500        26
  59.2000        28
  59.2500        19
  59.3000        26
  59.3500        21
  59.4000        27
  59.4500        24
  59.5000        24
  59.5500        15
  59.6000        15
  59.6500        26
  59.7000        23
  59.7500        26
  59.8000        19
  59.8500        15
  59.9000        30
  59.9500        17
  60.0000        25
  60.0500        25
  60.1000        23
  60.1500        28
  60.2000        22
  60.2500        19
  60.3000        23
  60.3500        20
  60.4000        26
  60.4500        16
  60.5000        24
  60.5500        26
  60.6000        17
  60.6500        24
  60.7000        26
  60.7500        26
  60.8000        26
  60.8500        22
  60.9000        22
  60.9500        21
  61.0000        27
  61.0500        20
  61.1000        21
  61.1500        27
  61.2000        25
  61.2500        20
  61.3000        18
  61.3500        19
  61.4000        19
  61.4500        17
  61.5000        27
  61.5500        23
  61.6000        12
  61.6500        23
  61.7000        23
  61.7500        22
  61.8000        17
  61.8500        25
  61.9000        22
  61.9500        15
  62.0000        18
  62.0500        26
  62.1000        26
  62.1500        20
  62.2000        18
  62.2500        31
  62.3000        28
  62.3500        13
  62.4000        21
  62.4500        24
  62.5000        21
  62.5500        27
  62.6000        27
  62.6500        23
  62.7000        33
  62.7500        15
  62.8000        20
  62.8500        30
  62.9000        29
  62.9500        32
  63.0000        27
  63.0500        27
  63.1000        29
  63.1500        20
  63.2000        22
  63.2500        27
  63.3000        31
  63.3500        30
  63.4000        23
  63.4500        16
  63.5000        27
  63.5500        25
  63.6000        26
  63.6500        24
  63.7000        27
  63.7500        23
  63.8000        30
  63.8500        24
  63.9000        22
  63.9500        34
  64.0000        16
  64.0500        17
  64.1000        22
  64.1500        28
  64.2000        18
  64.2500        24
  64.3000        30
  64.3500        13
  64.4000        18
  64.4500        22
  64.5000        23
  64.5500        30
  64.6000        27
  64.6500        22
  64.7000        25
  64.7500        24
  64.8000        21
  64.8500        21
  64.9000        33
  64.9500        21
  65.0000        26
  65.0500        21
  65.1000        30
  65.1500        20
  65.2000        31
  65.2500        21
  65.3000        22
  65.3500        31
  65.4000        29
  65.4500        32
  65.5000        27
  65.5500        29
  65.6000        19
  65.6500        23
  65.7000        23
  65.7500        27
  65.8000        20
  65.8500        19
  65.9000        17
  65.9500        31
  66.0000        21
  66.0500        26
  66.1000        21
  66.1500        23
  66.2000        22
  66.2500        18
  66.3000        13
  66.3500        26
  66.4000        20
  66.4500        19
  66.5000        35
  66.5500        21
  66.6000        24
  66.6500        19
  66.7000        15
  66.7500        11
  66.8000        17
  66.8500        17
  66.9000        13
  66.9500        28
  67.0000        14
  67.0500        19
  67.1000        19
  67.1500        20
  67.2000        29
  67.2500        28
  67.3000        18
  67.3500        22
  67.4000        41
  67.4500        24
  67.5000        19
  67.5500        23
  67.6000        27
  67.6500        30
  67.7000        25
  67.7500        19
  67.8000        31
  67.8500        22
  67.9000        24
  67.9500        25
  68.0000        19
  68.0500        28
  68.1000        22
  68.1500        30
  68.2000        15
  68.2500        24
  68.3000        13
  68.3500        24
  68.4000        20
  68.4500        24
  68.5000        24
  68.5500        20
  68.6000        29
  68.6500        20
  68.7000        23
  68.7500        17
  68.8000        34
  68.8500        29
  68.9000        31
  68.9500        24
  69.0000        20
  69.0500        26
  69.1000        24
  69.1500        14
  69.2000        13
  69.2500        25
  69.3000        28
  69.3500        13
  69.4000        25
  69.4500        24
  69.5000        18
  69.5500        32
  69.6000        23
  69.6500        24
  69.7000        23
  69.7500        24
  69.8000        27
  69.8500        19
  69.9000        26
  69.9500        19
  70.0000        21
  70.0500        35
  70.1000        19
  70.1500        28
  70.2000        18
  70.2500        22
  70.3000        32
  70.3500        26
  70.4000        20
  70.4500        23
  70.5000        27
  70.5500        31
  70.6000        27
  70.6500        23
  70.7000        26
  70.7500        22
  70.8000        27
  70.8500        23
  70.9000        18
  70.9500        28
  71.0000        20
  71.0500        14
  71.1000        22
  71.1500        27
  71.2000        24
  71.2500        28
  71.3000        17
  71.3500        25
  71.4000        30
  71.4500        20
  71.5000        25
  71.5500        24
  71.6000        20
  71.6500        29
  71.7000        21
  71.7500        31
  71.8000        24
  71.8500        23
  71.9000        32
  71.9500        37
  72.0000        14
  72.0500        39
  72.1000        19
  72.1500        31
  72.2000        21
  72.2500        28
  72.3000        21
  72.3500        34
  72.4000        20
  72.4500        30
  72.5000        26
  72.5500        34
  72.6000        24
  72.6500        23
  72.7000        29
  72.7500        21
  72.8000        33
  72.8500        29
  72.9000        27
  72.9500        22
  73.0000        26
  73.0500        23
  73.1000        39
  73.1500        29
  73.2000        25
  73.2500        31
  73.3000        35
  73.3500        27
  73.4000        18
  73.4500        29
  73.5000        31
  73.5500        27
  73.6000        32
  73.6500        34
  73.7000        29
  73.7500        32
  73.8000        26
  73.8500        28
  73.9000        24
  73.9500        32
  74.0000        27
  74.0500        26
  74.1000        26
  74.1500        23
  74.2000        36
  74.2500        36
  74.3000        35
  74.3500        35
  74.4000        45
  74.4500        39
  74.5000        39
  74.5500        44
  74.6000        57
  74.6500        46
  74.7000        69
  74.7500        57
  74.8000        63
  74.8500        63
  74.9000        96
  74.9500       108
  75.0000       125
  75.0500       146
  75.1000       168
  75.1500       157
  75.2000       215
  75.2500       218
  75.3000       233
  75.3500       218
  75.4000       238
  75.4500       240
  75.5000       263
  75.5500       222
  75.6000       215
  75.6500       208
  75.7000       167
  75.7500       156
  75.8000       149
  75.8500       101
  75.9000        83
  75.9500        94
  76.0000        51
  76.0500        70
  76.1000        63
  76.1500        48
  76.2000        53
  76.2500        46
  76.3000        48
  76.3500        40
  76.4000        28
  76.4500        35
  76.5000        32
  76.5500        34
  76.6000        37
  76.6500        33
  76.7000        37
  76.7500        27
  76.8000        39
  76.8500        28
  76.9000        22
  76.9500        29
  77.0000        30
  77.0500        26
  77.1000        20
  77.1500        35
  77.2000        30
  77.2500        23
  77.3000        33
  77.3500        22
  77.4000        26
  77.4500        23
  77.5000        26
  77.5500        37
  77.6000        32
  77.6500        29
  77.7000        26
  77.7500        25
  77.8000        24
  77.8500        22
  77.9000        27
  77.9500        25
  78.0000        24
  78.0500        17
  78.1000        31
  78.1500        21
  78.2000        25
  78.2500        25
  78.3000        22
  78.3500        29
  78.4000        18
  78.4500        29
  78.5000        27
  78.5500        29
  78.6000        16
  78.6500        25
  78.7000        20
  78.7500        37
  78.8000        23
  78.8500        23
  78.9000        22
  78.9500        20
  79.0000        19
  79.0500        13
  79.1000        21
  79.1500        35
  79.2000        22
  79.2500        26
  79.3000        28
  79.3500        29
  79.4000        15
  79.4500        32
  79.5000        22
  79.5500        29
  79.6000        27
  79.6500        22
  79.7000        30
  79.7500        32
  79.8000        27
  79.8500        22
  79.9000        21
  79.9500        20
  80.0000        27
  80.0500        32
  80.1000        23
  80.1500        35
  80.2000        28
  80.2500        23
  80.3000        21
  80.3500        27
  80.4000        24
  80.4500        28
  80.5000        28
  80.5500        23
  80.6000        34
  80.6500        25
  80.7000        35
  80.7500        18
  80.8000        27
  80.8500        29
  80.9000        30
  80.9500        32
  81.0000        26
  81.0500        26
  81.1000        24
  81.1500        23
  81.2000        32
  81.2500        21
  81.3000        19
  81.3500        21
  81.4000        24
  81.4500        29
  81.5000        15
  81.5500        21
  81.6000        23
  81.6500        27
  81.7000        23
  81.7500        21
  81.8000        26
  81.8500        20
  81.9000        31
  81.9500        27
  82.0000        33
  82.0500        27
  82.1000        28
  82.1500        30
  82.2000        15
  82.2500        31
  82.3000        30
  82.3500        14
  82.4000        27
  82.4500        16
  82.5000        23
  82.5500        29
  82.6000        30
  82.6500        27
  82.7000        23
  82.7500        20
  82.8000        21
  82.8500        26
  82.9000        29
  82.9500        32
  83.0000        22
  83.0500        20
  83.1000        25
  83.1500        26
  83.2000        27
  83.2500        25
  83.3000        23
  83.3500        18
  83.4000        24
  83.4500        14
  83.5000        25
  83.5500        26
  83.6000        23
  83.6500        21
  83.7000        32
  83.7500        35
  83.8000        25
  83.8500        29
  83.9000        19
  83.9500        24
  84.0000        34
  84.0500        30
  84.1000        36
  84.1500        34
  84.2000        20
  84.2500        29
  84.3000        28
  84.3500        21
  84.4000        22
  84.4500        18
  84.5000        27
  84.5500        26
  84.6000        22
  84.6500        25
  84.7000        27
  84.7500        25
  84.8000        23
  84.8500        32
  84.9000        24
  84.9500        22
  85.0000        27
  85.0500        21
  85.1000        21
  85.1500        19
  85.2000        26
  85.2500        24
  85.3000        26
  85.3500        26
  85.4000        30
  85.4500        28
  85.5000        22
  85.5500        27
  85.6000        24
  85.6500        20
  85.7000        22
  85.7500        28
  85.8000        25
  85.8500        28
  85.9000        19
  85.9500        24
  86.0000        19
  86.0500        25
  86.1000        19
  86.1500        16
  86.2000        20
  86.2500        27
  86.3000        22
  86.3500        26
  86.4000        34
  86.4500        27
  86.5000        38
  86.5500        21
  86.6000        28
  86.6500        17
  86.7000        24
  86.7500        27
  86.8000        25
  86.8500        32
  86.9000        23
  86.9500        23
  87.0000        31
  87.0500        34
  87.1000        24
  87.1500        22
  87.2000        18
  87.2500        28
  87.3000        14
  87.3500        25
  87.4000        20
  87.4500        26
  87.5000        29
  87.5500        16
  87.6000        42
  87.6500        25
  87.7000        29
  87.7500        29
  87.8000        25
  87.8500        26
  87.9000        21
  87.9500        27
  88.0000        27
  88.0500        25
  88.1000        16
  88.1500        30
  88.2000        28
  88.2500        33
  88.3000        29
  88.3500        33
  88.4000        27
  88.4500        30
  88.5000        19
  88.5500        38
  88.6000        25
  88.6500        24
  88.7000        30
  88.7500        30
  88.8000        29
  88.8500        23
  88.9000        24
  88.9500        30
  89.0000        29
  89.0500        25
  89.1000        25
  89.1500        36
  89.2000        25
  89.2500        30
  89.3000        28
  89.3500        33
  89.4000        32
  89.4500        28
  89.5000        38
  89.5500        35
  89.6000        26
  89.6500        31
  89.7000        34
  89.7500        34
  89.8000        31
  89.8500        22
  89.9000        28
  89.9500        26
  90.0000        18
  90.0500        34
  90.1000        24
  90.1500        34
  90.2000        40
  90.2500        37
  90.3000        50
  90.3500        36
  90.4000        36
  90.4500        61
  90.5000        47
  90.5500        44
  90.6000        42
  90.6500        58
  90.7000        66
  90.7500        68
  90.8000        70
  90.8500        79
  90.9000        76
  90.9500       100
  91.0000        95
  91.0500       107
  91.1000       130
  91.1500       120
  91.2000       125
  91.2500       143
  91.3000       190
  91.3500       190
  91.4000       179
  91.4500       181
  91.5000       208
  91.5500       220
  91.6000       201
  91.6500       198
  91.7000       203
  91.7500       183
  91.8000       195
  91.8500       187
  91.9000       177
  91.9500       165
  92.0000       142
  92.0500       134
  92.1000       139
  92.1500       116
  92.2000       113
  92.2500        85
  92.3000        84
  92.3500        74
  92.4000        55
  92.4500        68
  92.5000        51
  92.5500        45
  92.6000        52
  92.6500        51
  92.7000        44
  92.7500        45
  92.8000        42
  92.8500        43
  92.9000        42
  92.9500        48
  93.0000        40
  93.0500        30
  93.1000        31
  93.1500        41
  93.2000        48
  93.2500        29
  93.3000        23
  93.3500        25
  93.4000        30
  93.4500        34
  93.5000        29
  93.5500        32
  93.6000        26
  93.6500        32
  93.7000        33
  93.7500        29
  93.8000        22
  93.8500        29
  93.9000        24
  93.9500        31
  94.0000        26
  94.0500        21
  94.1000        16
  94.1500        30
  94.2000        31
  94.2500        26
  94.3000        21
  94.3500        24
  94.4000        48
  94.4500        19
  94.5000        34
  94.5500        30
  94.6000        24
  94.6500        32
  94.7000        24
  94.7500        30
  94.8000        34
  94.8500        27
  94.9000        20
  94.9500        21
  95.0000        32
  95.0500        27
  95.1000        29
  95.1500        22
  95.2000        33
  95.2500        26
  95.3000        22
  95.3500        35
  95.4000        25
  95.4500        23
  95.5000        34
  95.5500        37
  95.6000        27
  95.6500        29
  95.7000        30
  95.7500        26
  95.8000        25
  95.8500        39
  95.9000        26
  95.9500        33
  96.0000        32
  96.0500        37
  96.1000        33
  96.1500        32
  96.2000        39
  96.2500        41
  96.3000        35
  96.3500        45
  96.4000        51
  96.4500        54
  96.5000        52
  96.5500        55
  96.6000        57
  96.6500        57
  96.7000        75
  96.7500        78
  96.8000        89
  96.8500        73
  96.9000        82
  96.9500        89
  97.0000        73
  97.0500        81
  97.1000        89
  97.1500        92
  97.2000        71
  97.2500        76
  97.3000        50
  97.3500        75
  97.4000        81
  97.4500        71
  97.5000        58
  97.5500        56
  97.6000        47
  97.6500        36
  97.7000        46
  97.7500        41
  97.8000        27
  97.8500        24
  97.9000        37
  97.9500        42
  98.0000        40
  98.0500        32
  98.1000        37
  98.1500        21
  98.2000        18
  98.2500        29
  98.3000        25
  98.3500        28
  98.4000        24
  98.4500        21
  98.5000        31
  98.5500        25
  98.6000        35
  98.6500        34
  98.7000        26
  98.7500        33
  98.8000        27
  98.8500        28
  98.9000        31
  98.9500        24
  99.0000        26
  99.0500        21
  99.1000        17
  99.1500        22
  99.2000        26
  99.2500        22
  99.3000        31
  99.3500        26
  99.4000        26
  99.4500        23
  99.5000        22
  99.5500        26
  99.6000        22
  99.6500        23
  99.7000        34
  99.7500        36
  99.8000        22
  99.8500        25
  99.9000        20
  99.9500        20
 100.0000        28
 100.0500        20
 100.1000        33
 100.1500        29
 100.2000        25
 100.2500        33
 100.3000        19
 100.3500        28
 100.4000        28
 100.4500        32
 100.5000        24
 100.5500        30
 100.6000        26
 100.6500        33
 100.7000        26
 100.7500        24
 100.8000        31
 100.8500        22
 100.9000        24
 100.9500        19
 101.0000        27
 101.0500        24
 101.1000        22
 101.1500        24
 101.2000        37
 101.2500        23
 101.3000        28
 101.3500        24
 101.4000        31
 101.4500        19
 101.5000        19
 101.5500        28
 101.6000        42
 101.6500        23
 101.7000        30
 101.7500        32
 101.8000        32
 101.8500        30
 101.9000        24
 101.9500        35
 102.0000        28
 102.0500        26
 102.1000        23
 102.1500        16
 102.2000        24
 102.2500        23
 102.3000        24
 102.3500        27
 102.4000        27
 102.4500        28
 102.5000        19
 102.5500        23
 102.6000        36
 102.6500        21
 102.7000        28
 102.7500        25
 102.8000        15
 102.8500        22
 102.9000        22
 102.9500        16
 103.0000        26
 103.0500        30
 103.1000        28
 103.1500        21
 103.2000        41
 103.2500        21
 103.3000        32
 103.3500        25
 103.4000        23
 103.4500        17
 103.5000        22
 103.5500        23
 103.6000        28
 103.6500        25
 103.7000        33
 103.7500        21
 103.8000        25
 103.8500        29
 103.9000        18
 103.9500        22
 104.0000        33
 104.0500        19
 104.1000        23
 104.1500        26
 104.2000        31
 104.2500        23
 104.3000        20
 104.3500        18
 104.4000        20
 104.4500        26
 104.5000        17
 104.5500        33
 104.6000        20
 104.6500        30
 104.7000        22
 104.7500        23
 104.8000        33
 104.8500        24
 104.9000        25
 104.9500        19
 105.0000        17
 105.0500        21
 105.1000        24
 105.1500        25
 105.2000        25
 105.2500        29
 105.3000        28
 105.3500        22
 105.4000        29
 105.4500        27
 105.5000        39
 105.5500        19
 105.6000        21
 105.6500        18
 105.7000        18
 105.7500        24
 105.8000        35
 105.8500        24
 105.9000        23
 105.9500        32
 106.0000        19
 106.0500        35
 106.1000        28
 106.1500        33
 106.2000        23
 106.2500        27
 106.3000        21
 106.3500        27
 106.4000        29
 106.4500        26
 106.5000        32
 106.5500        32
 106.6000        38
 106.6500        27
 106.7000         9
 106.7500        17
 106.8000        21
 106.8500        22
 106.9000        23
 106.9500        24
 107.0000        16
 107.0500        21
 107.1000        15
 107.1500        27
 107.2000        34
 107.2500        23
 107.3000        27
 107.3500        24
 107.4000        27
 107.4500        24
 107.5000        24
 107.5500        30
 107.6000        29
 107.6500        26
 107.7000        25
 107.7500        19
 107.8000        26
 107.8500        28
 107.9000        22
 107.9500        19
 108.0000        16
 108.0500        31
 108.1000        18
 108.1500        31
 108.2000        27
 108.2500        23
 108.3000        39
 108.3500        36
 108.4000        23
 108.4500        24
 108.5000        30
 108.5500        22
 108.6000        23
 108.6500        20
 108.7000        20
 108.7500        21
 108.8000        33
 108.8500        25
 108.9000        24
 108.9500        17
 109.0000        30
 109.0500        21
 109.1000        22
 109.1500        21
 109.2000        34
 109.2500        22
 109.3000        30
 109.3500        21
 109.4000        31
 109.4500        23
 109.5000        29
 109.5500        22
 109.6000        21
 109.6500        30
 109.7000        28
 109.7500        19
 109.8000        26
 109.8500        47
 109.9000        23
 109.9500        25
 110.0000        17
