  10.0000        37
  10.0500        21
  10.1000        29
  10.1500        26
  10.2000        28
  10.2500        22
  10.3000        22
  10.3500        24
  10.4000        19
  10.4500        30
  10.5000        24
  10.5500        23
  10.6000        32
  10.6500        24
  10.7000        24
  10.7500        24
  10.8000        30
  10.8500        30
  10.9000        28
  10.9500        14
  11.0000        22
  11.0500        26
  11.1000        31
  11.1500        19
  11.2000        26
  11.2500        23
  11.3000        22
  11.3500        25
  11.4000        26
  11.4500        21
  11.5000        27
  11.5500        22
  11.6000        18
  11.6500        28
  11.7000        19
  11.7500        27
  11.8000        18
  11.8500        33
  11.9000        23
  11.9500        19
  12.0000        27
  12.0500        17
  12.1000        31
  12.1500        16
  12.2000        23
  12.2500        37
  12.3000        28
  12.3500        29
  12.4000        26
  12.4500        26
  12.5000        30
  12.5500        24
  12.6000        27
  12.6500        22
  12.7000        21
  12.7500        18
  12.8000        24
  12.8500        23
  12.9000        24
  12.9500        25
  13.0000        29
  13.0500        21
  13.1000        21
  13.1500        22
  13.2000        24
  13.2500        22
  13.3000        32
  13.3500        31
  13.4000        19
  13.4500        19
  13.5000        17
  13.5500        11
  13.6000        24
  13.6500        26
  13.7000        25
  13.7500        20
  13.8000        29
  13.8500        25
  13.9000        27
  13.9500        28
  14.0000        19
  14.0500        18
  14.1000        15
  14.1500        27
  14.2000        24
  14.2500        22
  14.3000        19
  14.3500        25
  14.4000        22
  14.4500        20
  14.5000        23
  14.5500        28
  14.6000        28
  14.6500        24
  14.7000        17
  14.7500        20
  14.8000        18
  14.8500        22
  14.9000        19
  14.9500        16
  15.0000        20
  15.0500        15
  15.1000        21
  15.1500        19
  15.2000        12
  15.2500        33
  15.3000        30
  15.3500        35
  15.4000        14
  15.4500        23
  15.5000        19
  15.5500        26
  15.6000        28
  15.6500        18
  15.7000        28
  15.7500        25
  15.8000        31
  15.8500        23
  15.9000        21
  15.9500        28
  16.0000        27
  16.0500        19
  16.1000        19
  16.1500        16
  16.2000        25
  16.2500        15
  16.3000        20
  16.3500        16
  16.4000        25
  16.4500        17
  16.5000        17
  16.5500        20
  16.6000        21
  16.6500        22
  16.7000        21
  16.7500        13
  16.8000        16
  16.8500        29
  16.9000        19
  16.9500        19
  17.0000        30
  17.0500        23
  17.1000        18
  17.1500        28
  17.2000        20
  17.2500        31
  17.3000        22
  17.3500        18
  17.4000        16
  17.4500        26
  17.5000        19
  17.5500        20
  17.6000        33
  17.6500        24
  17.7000        24
  17.7500        18
  17.8000        18
  17.8500        19
  17.9000        23
  17.9500        13
  18.0000        18
  18.0500        27
  18.1000        20
  18.1500        28
  18.2000        18
  18.2500        15
  18.3000        17
  18.3500        26
  18.4000        29
  18.4500        20
  18.5000        17
  18.5500        27
  18.6000        16
  18.6500        25
  18.7000        26
  18.7500        15
  18.8000        23
  18.8500        21
  18.9000        14
  18.9500        15
  19.0000        22
  19.0500        18
  19.1000        23
  19.1500        18
  19.2000        18
  19.2500        23
  19.3000        23
  19.3500        21
  19.4000        19
  19.4500        12
  19.5000        26
  19.5500        21
  19.6000        17
  19.6500        13
  19.7000        26
  19.7500        21
  19.8000        28
  19.8500        15
  19.9000        26
  19.9500        17
  20.0000        16
  20.0500        23
  20.1000        18
  20.1500        25
  20.2000        18
  20.2500        19
  20.3000        21
  20.3500        20
  20.4000        29
  20.4500        24
  20.5000        24
  20.5500        21
  20.6000        16
  20.6500        25
  20.7000        21
  20.7500        21
  20.8000        23
  20.8500        22
  20.9000        18
  20.9500        18
  21.0000        18
  21.0500        23
  21.1000        17
  21.1500        25
  21.2000        13
  21.2500        21
  21.3000        18
  21.3500        24
  21.4000        21
  21.4500        17
  21.5000        19
  21.5500        21
  21.6000        17
  21.6500        26
  21.7000        17
  21.7500        13
  21.8000        21
  21.8500        18
  21.9000        19
  21.9500        29
  22.0000        17
  22.0500        16
  22.1000        19
  22.1500        17
  22.2000        27
  22.2500        21
  22.3000        20
  22.3500        20
  22.4000        20
  22.4500        17
  22.5000        19
  22.5500        19
  22.6000        19
  22.6500        27
  22.7000        29
  22.7500        18
  22.8000        24
  22.8500        16
  22.9000        23
  22.9500        15
  23.0000        16
  23.0500        18
  23.1000        15
  23.1500        18
  23.2000        14
  23.2500        18
  23.3000        13
  23.3500        18
  23.4000        23
  23.4500        17
  23.5000        22
  23.5500        11
  23.6000        14
  23.6500        17
  23.7000        20
  23.7500        19
  23.8000        23
  23.8500        15
  23.9000        19
  23.9500        19
  24.0000        14
  24.0500        15
  24.1000        20
  24.1500        17
  24.2000        13
  24.2500        19
  24.3000        20
  24.3500        13
  24.4000        22
  24.4500        16
  24.5000        19
  24.5500        22
  24.6000        21
  24.6500        19
  24.7000        24
  24.7500        19
  24.8000        23
  24.8500        14
  24.9000        23
  24.9500        19
  25.0000        11
  25.0500        22
  25.1000        20
  25.1500        17
  25.2000        19
  25.2500        21
  25.3000        16
  25.3500        20
  25.4000        22
  25.4500        15
  25.5000        22
  25.5500        18
  25.6000        14
  25.6500        21
  25.7000        19
  25.7500        15
  25.8000        20
  25.8500        30
  25.9000        10
  25.9500        28
  26.0000        17
  26.0500        19
  26.1000        23
  26.1500        21
  26.2000        21
  26.2500        22
  26.3000        13
  26.3500        24
  26.4000        16
  26.4500        12
  26.5000        18
  26.5500        21
  26.6000        20
  26.6500        19
  26.7000        18
  26.7500        23
  26.8000        20
  26.8500        24
  26.9000        17
  26.9500        14
  27.0000        15
  27.0500        19
  27.1000        12
  27.1500        15
  27.2000        14
  27.2500        21
  27.3000        18
  27.3500        21
  27.4000        18
  27.4500        17
  27.5000        22
  27.5500        18
  27.6000        21
  27.6500        14
  27.7000        23
  27.7500        30
  27.8000        20
  27.8500        14
  27.9000        17
  27.9500        16
  28.0000        13
  28.0500        22
  28.1000        23
  28.1500        22
  28.2000        19
  28.2500        20
  28.3000        12
  28.3500        11
  28.4000        15
  28.4500        17
  28.5000        18
  28.5500        19
  28.6000        23
  28.6500        25
  28.7000        16
  28.7500        14
  28.8000        25
  28.8500        17
  28.9000        23
  28.9500         8
  29.0000        20
  29.0500        18
  29.1000        21
  29.1500        21
  29.2000        18
  29.2500        13
  29.3000        22
  29.3500        13
  29.4000        16
  29.4500        16
  29.5000        17
  29.5500        18
  29.6000        17
  29.6500        22
  29.7000        25
  29.7500        15
  29.8000        14
  29.8500        18
  29.9000        19
  29.9500        19
  30.0000        23
  30.0500        13
  30.1000        23
  30.1500        21
  30.2000        17
  30.2500        12
  30.3000        19
  30.3500        25
  30.4000        14
  30.4500        17
  30.5000        18
  30.5500        14
  30.6000        18
  30.6500        20
  30.7000        13
  30.7500        12
  30.8000        17
  30.8500        19
  30.9000        29
  30.9500        23
  31.0000        26
  31.0500        19
  31.1000        20
  31.1500        21
  31.2000        16
  31.2500        10
  31.3000        16
  31.3500        18
  31.4000        20
  31.4500        20
  31.5000        15
  31.5500        15
  31.6000        17
  31.6500         8
  31.7000        16
  31.7500        12
  31.8000        26
  31.8500        16
  31.9000        18
  31.9500        19
  32.0000        17
  32.0500        19
  32.1000        17
  32.1500        14
  32.2000        21
  32.2500        18
  32.3000        21
  32.3500        21
  32.4000        15
  32.4500        25
  32.5000        21
  32.5500        12
  32.6000        19
  32.6500        20
  32.7000        19
  32.7500        20
  32.8000        20
  32.8500        15
  32.9000        23
  32.9500        18
  33.0000        26
  33.0500        26
  33.1000        23
  33.1500        26
  33.2000        25
  33.2500        15
  33.3000        15
  33.3500        22
  33.4000        16
  33.4500        14
  33.5000        22
  33.5500        19
  33.6000        23
  33.6500        17
  33.7000        28
  33.7500        20
  33.8000        20
  33.8500        21
  33.9000        21
  33.9500        17
  34.0000        20
  34.0500        24
  34.1000        20
  34.1500        18
  34.2000        17
  34.2500        22
  34.3000        23
  34.3500        12
  34.4000        19
  34.4500        22
  34.5000        25
  34.5500        20
  34.6000        12
  34.6500        26
  34.7000        24
  34.7500        20
  34.8000        21
  34.8500        22
  34.9000        18
  34.9500        15
  35.0000        14
  35.0500        13
  35.1000        18
  35.1500        17
  35.2000        17
  35.2500        19
  35.3000        24
  35.3500        21
  35.4000        23
  35.4500        24
  35.5000        18
  35.5500        12
  35.6000        12
  35.6500        20
  35.7000        18
  35.7500        15
  35.8000        24
  35.8500        16
  35.9000        26
  35.9500        18
  36.0000        21
  36.0500        22
  36.1000        31
  36.1500        16
  36.2000        25
  36.2500        22
  36.3000        24
  36.3500        24
  36.4000        26
  36.4500        25
  36.5000        18
  36.5500        20
  36.6000        22
  36.6500        24
  36.7000        19
  36.7500        23
  36.8000        27
  36.8500        15
  36.9000        15
  36.9500        23
  37.0000        26
  37.0500        23
  37.1000        24
  37.1500        27
  37.2000        27
  37.2500        28
  37.3000        22
  37.3500        25
  37.4000        18
  37.4500        31
  37.5000        26
  37.5500        24
  37.6000        23
  37.6500        20
  37.7000        22
  37.7500        20
  37.8000        19
  37.8500        18
  37.9000        25
  37.9500        28
  38.0000        22
  38.0500        22
  38.1000        17
  38.1500        22
  38.2000        18
  38.2500        17
  38.3000        22
  38.3500        36
  38.4000        23
  38.4500        21
  38.5000        33
  38.5500        25
  38.6000        28
  38.6500        25
  38.7000        20
  38.7500        24
  38.8000        15
  38.8500        28
  38.9000        28
  38.9500        29
  39.0000        12
  39.0500        18
  39.1000        29
  39.1500        20
  39.2000        18
  39.2500        17
  39.3000        17
  39.3500        16
  39.4000        19
  39.4500        26
  39.5000        20
  39.5500        22
  39.6000        31
  39.6500        15
  39.7000        22
  39.7500        17
  39.8000        16
  39.8500        26
  39.9000        22
  39.9500        16
  40.0000        21
  40.0500        16
  40.1000        23
  40.1500        16
  40.2000        15
  40.2500        17
  40.3000        15
  40.3500        19
  40.4000        24
  40.4500        26
  40.5000        25
  40.5500        17
  40.6000        23
  40.6500        22
  40.7000        32
  40.7500        24
  40.8000        20
  40.8500        24
  40.9000        30
  40.9500        34
  41.0000        25
  41.0500        32
  41.1000        22
  41.1500        17
  41.2000        27
  41.2500        25
  41.3000        35
  41.3500        27
  41.4000        20
  41.4500        19
  41.5000        19
  41.5500        24
  41.6000        20
  41.6500        20
  41.7000        29
  41.7500        26
  41.8000        29
  41.8500        27
  41.9000        35
  41.9500        27
  42.0000        39
  42.0500        34
  42.1000        28
  42.1500        27
  42.2000        35
  42.2500        48
  42.3000        38
  42.3500        30
  42.4000        35
  42.4500        44
  42.5000        41
  42.5500        36
  42.6000        44
  42.6500        42
  42.7000        55
  42.7500        57
  42.8000        51
  42.8500        72
  42.9000        53
  42.9500        60
  43.0000        68
  43.0500       102
  43.1000       108
  43.1500       130
  43.2000       161
  43.2500       176
  43.3000       282
  43.3500       359
  43.4000       578
  43.4500       861
  43.5000      1125
  43.5500      1602
  43.6000      1839
  43.6500      2000
  43.7000      1873
  43.7500      1605
  43.8000      1171
  43.8500       853
  43.9000       583
  43.9500       400
  44.0000       240
  44.0500       175
  44.1000       121
  44.1500        90
  44.2000        84
  44.2500        77
  44.3000        61
  44.3500        74
  44.4000        43
  44.4500        53
  44.5000        45
  44.5500        28
  44.6000        46
  44.6500        46
  44.7000        34
  44.7500        31
  44.8000        39
  44.8500        25
  44.9000        33
  44.9500        25
  45.0000        32
  45.0500        34
  45.1000        29
  45.1500        24
  45.2000        31
  45.2500        21
  45.3000        31
  45.3500        22
  45.4000        15
  45.4500        32
  45.5000        24
  45.5500        26
  45.6000        22
  45.6500        22
  45.7000        18
  45.7500        33
  45.8000        29
  45.8500        22
  45.9000        18
  45.9500        23
  46.0000        19
  46.0500        20
  46.1000        21
  46.1500        25
  46.2000        24
  46.2500        29
  46.3000        21
  46.3500        33
  46.4000        20
  46.4500        23
  46.5000        24
  46.5500        27
  46.6000        26
  46.6500        23
  46.7000        33
  46.7500        21
  46.8000        34
  46.8500        30
  46.9000        19
  46.9500        26
  47.0000        16
  47.0500        26
  47.1000        17
  47.1500        17
  47.2000        22
  47.2500        27
  47.3000        27
  47.3500        19
  47.4000        29
  47.4500        19
  47.5000        20
  47.5500        16
  47.6000        18
  47.6500        26
  47.7000        20
  47.7500        31
  47.8000        19
  47.8500        20
  47.9000        16
  47.9500        24
  48.0000        22
  48.0500        22
  48.1000        34
  48.1500        31
  48.2000        25
  48.2500        27
  48.3000        16
  48.3500        25
  48.4000        22
  48.4500        18
  48.5000        26
  48.5500        19
  48.6000        23
  48.6500        16
  48.7000        30
  48.7500        23
  48.8000        29
  48.8500        26
  48.9000        22
  48.9500        26
  49.0000        24
  49.0500        39
  49.1000        29
  49.1500        24
  49.2000        26
  49.2500        28
  49.3000        27
  49.3500        31
  49.4000        31
  49.4500        21
  49.5000        30
  49.5500        42
  49.6000        27
  49.6500        38
  49.7000        39
  49.7500        30
  49.8000        43
  49.8500        36
  49.9000        40
  49.9500        40
  50.0000        36
  50.0500        43
  50.1000        54
  50.1500        53
  50.2000        67
  50.2500        64
  50.3000        85
  50.3500        82
  50.4000       115
  50.4500       152
  50.5000       216
  50.5500       253
  50.6000       318
  50.6500       393
  50.7000       487
  50.7500       562
  50.8000       602
  50.8500       604
  50.9000       586
  50.9500       525
  51.0000       486
  51.0500       368
  51.1000       316
  51.1500       235
  51.2000       184
  51.2500       152
  51.3000       101
  51.3500        91
  51.4000        78
  51.4500        59
  51.5000        53
  51.5500        47
  51.6000        54
  51.6500        44
  51.7000        41
  51.7500        42
  51.8000        33
  51.8500        27
  51.9000        33
  51.9500        37
  52.0000        31
  52.0500        33
  52.1000        32
  52.1500        28
  52.2000        27
  52.2500        16
  52.3000        19
  52.3500        18
  52.4000        21
  52.4500        34
  52.5000        22
  52.5500        21
  52.6000        21
  52.6500        24
  52.7000        22
  52.7500        20
  52.8000        24
  52.8500        23
  52.9000        21
  52.9500        19
  53.0000        21
  53.0500        20
  53.1000        20
  53.1500        13
  53.2000        22
  53.2500        20
  53.3000        24
  53.3500        16
  53.4000        14
  53.4500        17
  53.5000        17
  53.5500        19
  53.6000         8
  53.6500        21
  53.7000        29
  53.7500        16
  53.8000        12
  53.8500         9
  53.9000        18
  53.9500        17
  54.0000        21
  54.0500        14
  54.1000        24
  54.1500        24
  54.2000        12
  54.2500        24
  54.3000        24
  54.3500        17
  54.4000        21
  54.4500        12
  54.5000        14
  54.5500        20
  54.6000        18
  54.6500        18
  54.7000        21
  54.7500        26
  54.8000        18
  54.8500        15
  54.9000        24
  54.9500        21
  55.0000        11
  55.0500        29
  55.1000        34
  55.1500        17
  55.2000        25
  55.2500        23
  55.3000        23
  55.3500        19
  55.4000        20
  55.4500        23
  55.5000        25
  55.5500        24
  55.6000        17
  55.6500        28
  55.7000        18
  55.7500        25
  55.8000        20
  55.8500        12
  55.9000        17
  55.9500        22
  56.0000        25
  56.0500        21
  56.1000        19
  56.1500        14
  56.2000        16
  56.2500        17
  56.3000        14
  56.3500        25
  56.4000        18
  56.4500        23
  56.5000        10
  56.5500        19
  56.6000        21
  56.6500        22
  56.7000        16
  56.7500        13
  56.8000        22
  56.8500        21
  56.9000        15
  56.9500        18
  57.0000        19
  57.0500        23
  57.1000        21
  57.1500        14
  57.2000        21
  57.2500        29
  57.3000        22
  57.3500        25
  57.4000        12
  57.4500        23
  57.5000        22
  57.5500        13
  57.6000        24
  57.6500        22
  57.7000        19
  57.7500        23
  57.8000        29
  57.8500        17
  57.9000        20
  57.9500        17
  58.0000        13
  58.0500        21
  58.1000        24
  58.1500        15
  58.2000        19
  58.2500        17
  58.3000        21
  58.3500        26
  58.4000        20
  58.4500        20
  58.5000        22
  58.5500        16
  58.6000        20
  58.6500        20
  58.7000        33
  58.7500        12
  58.8000        23
  58.8500        21
  58.9000        13
  58.9500        23
  59.0000        12
  59.0500        16
  59.1000        18
  59.1500        17
  59.2000        18
  59.2500        20
  59.3000        17
  59.3500        18
  59.4000        11
  59.4500        22
  59.5000        18
  59.5500        15
  59.6000        12
  59.6500        14
  59.7000        28
  59.7500        18
  59.8000        15
  59.8500        15
  59.9000        15
  59.9500        21
  60.0000        19
  60.0500        13
  60.1000        13
  60.1500        17
  60.2000        21
  60.2500        18
  60.3000        18
  60.3500        22
  60.4000        24
  60.4500        25
  60.5000        19
  60.5500        17
  60.6000        24
  60.6500        17
  60.7000        20
  60.7500        16
  60.8000        16
  60.8500        10
  60.9000        13
  60.9500        17
  61.0000        22
  61.0500        15
  61.1000        20
  61.1500        24
  61.2000        22
  61.2500        26
  61.3000        22
  61.3500        22
  61.4000        18
  61.4500        20
  61.5000        16
  61.5500        18
  61.6000        19
  61.6500        14
  61.7000        21
  61.7500        13
  61.8000        18
  61.8500        16
  61.9000        15
  61.9500        15
  62.0000        23
  62.0500        16
  62.1000        23
  62.1500        13
  62.2000        27
  62.2500        14
  62.3000        27
  62.3500        12
  62.4000        18
  62.4500        30
  62.5000        25
  62.5500        30
  62.6000        17
  62.6500        17
  62.7000        24
  62.7500        19
  62.8000        28
  62.8500        26
  62.9000        17
  62.9500        24
  63.0000        23
  63.0500        12
  63.1000        23
  63.1500        21
  63.2000        29
  63.2500        28
  63.3000        21
  63.3500        19
  63.4000        15
  63.4500        15
  63.5000        19
  63.5500        25
  63.6000        19
  63.6500        18
  63.7000        22
  63.7500        23
  63.8000        22
  63.8500        22
  63.9000        24
  63.9500        16
  64.0000        11
  64.0500        17
  64.1000        14
  64.1500        18
  64.2000        17
  64.2500        12
  64.3000        16
  64.3500        14
  64.4000        15
  64.4500        19
  64.5000        14
  64.5500        18
  64.6000        16
  64.6500        14
  64.7000        21
  64.7500        17
  64.8000        19
  64.8500        23
  64.9000        21
  64.9500        15
  65.0000        16
  65.0500        12
  65.1000        19
  65.1500        16
  65.2000        25
  65.2500        17
  65.3000        16
  65.3500        25
  65.4000        25
  65.4500         8
  65.5000        16
  65.5500        23
  65.6000        17
  65.6500        15
  65.7000        15
  65.7500        12
  65.8000        17
  65.8500        15
  65.9000        14
  65.9500        15
  66.0000        31
  66.0500        27
  66.1000        30
  66.1500        21
  66.2000        29
  66.2500        18
  66.3000        24
  66.3500        16
  66.4000        16
  66.4500        23
  66.5000        17
  66.5500        17
  66.6000        21
  66.6500        21
  66.7000        18
  66.7500        21
  66.8000        17
  66.8500        16
  66.9000        19
  66.9500        15
  67.0000        22
  67.0500        13
  67.1000        18
  67.1500        18
  67.2000        18
  67.2500        17
  67.3000        24
  67.3500        17
  67.4000        33
  67.4500        23
  67.5000        20
  67.5500        19
  67.6000        22
  67.6500        21
  67.7000        20
  67.7500        25
  67.8000        25
  67.8500        22
  67.9000        21
  67.9500        30
  68.0000        14
  68.0500        19
  68.1000        21
  68.1500        24
  68.2000        18
  68.2500        18
  68.3000        12
  68.3500        17
  68.4000        20
  68.4500        13
  68.5000        12
  68.5500        12
  68.6000        21
  68.6500        12
  68.7000        18
  68.7500        25
  68.8000        31
  68.8500        21
  68.9000        18
  68.9500        22
  69.0000        16
  69.0500        19
  69.1000        26
  69.1500        22
  69.2000        28
  69.2500        24
  69.3000        17
  69.3500        17
  69.4000        14
  69.4500        19
  69.5000        15
  69.5500        19
  69.6000        16
  69.6500        20
  69.7000        26
  69.7500        21
  69.8000        21
  69.8500        14
  69.9000        21
  69.9500        25
  70.0000        10
  70.0500        20
  70.1000        20
  70.1500         9
  70.2000        16
  70.2500        19
  70.3000        15
  70.3500        16
  70.4000        25
  70.4500        17
  70.5000        23
  70.5500        17
  70.6000        18
  70.6500        24
  70.7000        14
  70.7500        17
  70.8000        21
  70.8500        26
  70.9000        21
  70.9500        15
  71.0000        26
  71.0500        26
  71.1000        20
  71.1500        22
  71.2000        25
  71.2500        15
  71.3000        18
  71.3500        13
  71.4000        14
  71.4500        28
  71.5000        24
  71.5500        22
  71.6000        18
  71.6500         9
  71.7000        22
  71.7500        19
  71.8000        19
  71.8500        28
  71.9000        22
  71.9500        20
  72.0000        19
  72.0500        24
  72.1000        18
  72.1500        26
  72.2000        21
  72.2500        25
  72.3000        20
  72.3500        13
  72.4000        21
  72.4500        28
  72.5000        32
  72.5500        34
  72.6000        16
  72.6500        22
  72.7000        27
  72.7500        13
  72.8000        21
  72.8500        24
  72.9000        20
  72.9500        17
  73.0000        14
  73.0500        18
  73.1000        24
  73.1500        24
  73.2000        24
  73.2500        11
  73.3000        25
  73.3500        24
  73.4000        20
  73.4500        29
  73.5000        25
  73.5500        33
  73.6000        33
  73.6500        25
  73.7000        32
  73.7500        22
  73.8000        35
  73.8500        23
  73.9000        41
  73.9500        25
  74.0000        38
  74.0500        38
  74.1000        37
  74.1500        55
  74.2000        54
  74.2500        65
  74.3000        77
  74.3500        80
  74.4000        92
  74.4500       125
  74.5000       151
  74.5500       171
  74.6000       199
  74.6500       230
  74.7000       269
  74.7500       266
  74.8000       255
  74.8500       279
  74.9000       261
  74.9500       216
  75.0000       200
  75.0500       188
  75.1000       168
  75.1500       127
  75.2000       116
  75.2500        83
  75.3000        68
  75.3500        65
  75.4000        61
  75.4500        61
  75.5000        53
  75.5500        38
  75.6000        34
  75.6500        32
  75.7000        30
  75.7500        35
  75.8000        27
  75.8500        31
  75.9000        22
  75.9500        29
  76.0000        21
  76.0500        24
  76.1000        24
  76.1500        23
  76.2000        23
  76.2500        17
  76.3000        21
  76.3500        25
  76.4000        15
  76.4500        24
  76.5000        21
  76.5500        23
  76.6000        16
  76.6500        30
  76.7000        22
  76.7500        32
  76.8000        17
  76.8500        22
  76.9000        19
  76.9500        18
  77.0000        16
  77.0500        21
  77.1000        17
  77.1500        33
  77.2000        14
  77.2500        23
  77.3000        20
  77.3500         7
  77.4000        18
  77.4500        24
  77.5000        23
  77.5500        18
  77.6000        19
  77.6500        16
  77.7000        22
  77.7500        26
  77.8000        25
  77.8500        18
  77.9000        21
  77.9500        17
  78.0000        29
  78.0500        26
  78.1000        15
  78.1500        20
  78.2000        27
  78.2500        15
  78.3000        20
  78.3500        16
  78.4000        18
  78.4500        20
  78.5000        15
  78.5500        13
  78.6000        20
  78.6500        18
  78.7000        21
  78.7500        21
  78.8000        18
  78.8500        26
  78.9000        23
  78.9500        14
  79.0000        15
  79.0500        28
  79.1000        22
  79.1500        22
  79.2000        21
  79.2500        28
  79.3000        22
  79.3500        26
  79.4000        23
  79.4500        21
  79.5000        22
  79.5500        20
  79.6000        18
  79.6500        25
  79.7000        19
  79.7500        29
  79.8000        15
  79.8500        18
  79.9000        23
  79.9500        27
  80.0000        25
  80.0500        21
  80.1000        18
  80.1500        13
  80.2000        22
  80.2500        23
  80.3000        16
  80.3500        20
  80.4000        16
  80.4500        19
  80.5000        17
  80.5500        23
  80.6000        23
  80.6500        18
  80.7000        20
  80.7500         9
  80.8000        26
  80.8500        25
  80.9000        24
  80.9500        22
  81.0000        24
  81.0500        17
  81.1000        13
  81.1500        22
  81.2000        20
  81.2500        11
  81.3000        17
  81.3500        22
  81.4000        20
  81.4500        19
  81.5000        20
  81.5500        19
  81.6000        15
  81.6500        24
  81.7000        16
  81.7500        29
  81.8000        21
  81.8500        11
  81.9000        18
  81.9500        21
  82.0000        20
  82.0500        17
  82.1000        22
  82.1500        23
  82.2000        15
  82.2500        19
  82.3000        17
  82.3500        21
  82.4000        20
  82.4500        17
  82.5000        22
  82.5500        16
  82.6000        21
  82.6500        18
  82.7000        16
  82.7500        18
  82.8000        21
  82.8500        29
  82.9000        20
  82.9500        22
  83.0000        20
  83.0500        21
  83.1000        17
  83.1500        16
  83.2000        20
  83.2500        24
  83.3000        22
  83.3500        23
  83.4000        23
  83.4500        17
  83.5000        18
  83.5500        29
  83.6000        13
  83.6500        25
  83.7000        21
  83.7500        15
  83.8000        21
  83.8500        18
  83.9000        24
  83.9500        26
  84.0000        19
  84.0500        26
  84.1000        24
  84.1500        21
  84.2000        12
  84.2500        16
  84.3000        16
  84.3500        17
  84.4000        22
  84.4500        23
  84.5000        18
  84.5500        21
  84.6000        19
  84.6500        21
  84.7000        21
  84.7500        13
  84.8000        13
  84.8500        23
  84.9000        14
  84.9500        22
  85.0000        18
  85.0500        26
  85.1000        22
  85.1500        19
  85.2000        15
  85.2500        23
  85.3000        28
  85.3500        19
  85.4000        18
  85.4500        25
  85.5000        21
  85.5500        10
  85.6000        21
  85.6500        22
  85.7000        29
  85.7500        14
  85.8000        19
  85.8500        20
  85.9000        14
  85.9500        14
  86.0000        21
  86.0500        14
  86.1000        24
  86.1500        17
  86.2000        22
  86.2500        18
  86.3000        16
  86.3500        20
  86.4000        23
  86.4500        28
  86.5000        14
  86.5500        10
  86.6000        24
  86.6500        27
  86.7000        23
  86.7500        17
  86.8000        17
  86.8500        29
  86.9000        27
  86.9500        23
  87.0000        16
  87.0500        19
  87.1000        18
  87.1500        29
  87.2000        29
  87.2500        23
  87.3000        19
  87.3500        22
  87.4000        17
  87.4500        25
  87.5000        27
  87.5500        17
  87.6000        17
  87.6500        25
  87.7000        24
  87.7500        25
  87.8000        25
  87.8500        30
  87.9000        18
  87.9500        21
  88.0000        24
  88.0500        24
  88.1000        26
  88.1500        26
  88.2000        19
  88.2500        15
  88.3000        25
  88.3500        30
  88.4000        19
  88.4500        24
  88.5000        34
  88.5500        22
  88.6000        26
  88.6500        23
  88.7000        28
  88.7500        26
  88.8000        27
  88.8500        26
  88.9000        19
  88.9500        20
  89.0000        32
  89.0500        22
  89.1000        24
  89.1500        24
  89.2000        28
  89.2500        19
  89.3000        35
  89.3500        34
  89.4000        35
  89.4500        26
  89.5000        28
  89.5500        24
  89.6000        30
  89.6500        32
  89.7000        42
  89.7500        32
  89.8000        38
  89.8500        41
  89.9000        43
  89.9500        41
  90.0000        45
  90.0500        43
  90.1000        55
  90.1500        67
  90.2000        73
  90.2500        85
  90.3000        80
  90.3500       104
  90.4000       134
  90.4500       133
  90.5000       134
  90.5500       165
  90.6000       177
  90.6500       219
  90.7000       222
  90.7500       236
  90.8000       198
  90.8500       232
  90.9000       225
  90.9500       224
  91.0000       211
  91.0500       192
  91.1000       156
  91.1500       144
  91.2000       135
  91.2500       140
  91.3000       133
  91.3500       104
  91.4000        87
  91.4500        87
  91.5000        52
  91.5500        73
  91.6000        65
  91.6500        58
  91.7000        46
  91.7500        40
  91.8000        43
  91.8500        39
  91.9000        36
  91.9500        39
  92.0000        26
  92.0500        29
  92.1000        38
  92.1500        29
  92.2000        29
  92.2500        23
  92.3000        30
  92.3500        35
  92.4000        32
  92.4500        26
  92.5000        19
  92.5500        25
  92.6000        26
  92.6500        25
  92.7000        29
  92.7500        26
  92.8000        23
  92.8500        20
  92.9000        31
  92.9500        30
  93.0000        28
  93.0500        20
  93.1000        25
  93.1500        23
  93.2000        25
  93.2500        18
  93.3000        23
  93.3500        20
  93.4000        15
  93.4500        22
  93.5000        27
  93.5500        33
  93.6000        27
  93.6500        20
  93.7000        28
  93.7500        18
  93.8000        25
  93.8500        24
  93.9000        28
  93.9500        19
  94.0000        20
  94.0500        21
  94.1000        21
  94.1500        26
  94.2000        23
  94.2500        32
  94.3000        21
  94.3500        26
  94.4000        27
  94.4500        32
  94.5000        23
  94.5500        27
  94.6000        20
  94.6500        22
  94.7000        27
  94.7500        31
  94.8000        16
  94.8500        33
  94.9000        33
  94.9500        27
  95.0000        25
  95.0500        25
  95.1000        28
  95.1500        24
  95.2000        29
  95.2500        17
  95.3000        32
  95.3500        29
  95.4000        38
  95.4500        28
  95.5000        34
  95.5500        32
  95.6000        32
  95.6500        55
  95.7000        57
  95.7500        56
  95.8000        77
  95.8500        73
  95.9000        78
  95.9500        72
  96.0000        79
  96.0500        89
  96.1000        93
  96.1500        73
  96.2000        89
  96.2500        87
  96.3000        66
  96.3500        78
  96.4000        68
  96.4500        50
  96.5000        76
  96.5500        54
  96.6000        53
  96.6500        46
  96.7000        39
  96.7500        42
  96.8000        39
  96.8500        26
  96.9000        28
  96.9500        23
  97.0000        22
  97.0500        22
  97.1000        26
  97.1500        26
  97.2000        27
  97.2500        26
  97.3000        17
  97.3500        19
  97.4000        30
  97.4500        16
  97.5000        22
  97.5500        21
  97.6000        15
  97.6500        18
  97.7000        23
  97.7500        22
  97.8000        24
  97.8500        21
  97.9000        15
  97.9500        18
  98.0000        21
  98.0500        18
  98.1000        29
  98.1500        24
  98.2000        27
  98.2500        23
  98.3000        18
  98.3500         9
  98.4000        20
  98.4500        28
  98.5000        22
  98.5500        24
  98.6000        16
  98.6500        21
  98.7000        26
  98.7500        22
  98.8000        21
  98.8500        23
  98.9000        19
  98.9500        25
  99.0000        15
  99.0500        17
  99.1000        17
  99.1500        23
  99.2000        25
  99.2500        13
  99.3000        17
  99.3500        18
  99.4000        23
  99.4500        25
  99.5000        28
  99.5500        21
  99.6000        22
  99.6500        18
  99.7000        30
  99.7500        27
  99.8000        19
  99.8500        24
  99.9000        21
  99.9500        19
 100.0000        20
 100.0500        21
 100.1000        24
 100.1500        23
 100.2000        22
 100.2500        18
 100.3000        22
 100.3500        22
 100.4000        18
 100.4500        23
 100.5000        31
 100.5500        24
 100.6000        17
 100.6500        36
 100.7000        19
 100.7500        23
 100.8000        20
 100.8500        13
 100.9000        17
 100.9500        23
 101.0000        16
 101.0500        23
 101.1000        15
 101.1500        14
 101.2000        25
 101.2500        20
 101.3000        24
 101.3500        19
 101.4000        22
 101.4500        22
 101.5000        22
 101.5500        20
 101.6000        10
 101.6500        15
 101.7000        27
 101.7500        29
 101.8000        17
 101.8500        21
 101.9000        27
 101.9500        23
 102.0000        23
 102.0500        21
 102.1000        16
 102.1500        29
 102.2000        18
 102.2500        17
 102.3000        12
 102.3500        18
 102.4000        24
 102.4500        27
 102.5000        20
 102.5500        13
 102.6000        22
 102.6500        26
 102.7000        15
 102.7500        21
 102.8000        19
 102.8500        13
 102.9000         8
 102.9500        19
 103.0000        16
 103.0500        21
 103.1000        20
 103.1500        20
 103.2000        18
 103.2500        11
 103.3000        18
 103.3500        15
 103.4000        26
 103.4500        20
 103.5000        25
 103.5500        26
 103.6000        12
 103.6500        22
 103.7000        21
 103.7500        10
 103.8000        13
 103.8500        27
 103.9000        22
 103.9500        19
 104.0000        17
 104.0500        21
 104.1000         9
 104.1500        18
 104.2000        23
 104.2500        21
 104.3000        16
 104.3500        20
 104.4000        29
 104.4500        25
 104.5000        20
 104.5500        26
 104.6000        26
 104.6500        26
 104.7000        23
 104.7500        20
 104.8000        18
 104.8500        25
 104.9000        26
 104.9500        29
 105.0000        14
 105.0500        18
 105.1000        22
 105.1500        25
 105.2000        22
 105.2500        16
 105.3000        18
 105.3500        15
 105.4000        27
 105.4500        25
 105.5000        15
 105.5500        25
 105.6000        31
 105.6500        15
 105.7000        18
 105.7500        12
 105.8000        19
 105.8500        24
 105.9000        18
 105.9500        21
 106.0000        20
 106.0500        18
 106.1000        22
 106.1500        18
 106.2000        18
 106.2500        18
 106.3000        17
 106.3500        18
 106.4000        15
 106.4500        22
 106.5000        20
 106.5500        14
 106.6000        15
 106.6500        21
 106.7000        22
 106.7500        19
 106.8000        19
 106.8500        19
 106.9000        23
 106.9500        18
 107.0000        32
 107.0500        16
 107.1000        10
 107.1500        24
 107.2000        19
 107.2500        27
 107.3000        16
 107.3500        16
 107.4000        15
 107.4500        21
 107.5000        15
 107.5500        22
 107.6000        24
 107.6500        15
 107.7000        19
 107.7500        27
 107.8000        21
 107.8500        28
 107.9000        17
 107.9500        16
 108.0000        18
 108.0500        24
 108.1000        25
 108.1500        23
 108.2000         6
 108.2500         9
 108.3000        29
 108.3500        28
 108.4000        19
 108.4500        19
 108.5000        25
 108.5500        21
 108.6000        14
 108.6500        15
 108.7000        19
 108.7500        16
 108.8000        17
 108.8500        16
 108.9000        18
 108.9500        28
 109.0000        18
 109.0500        13
 109.1000        22
 109.1500        16
 109.2000        22
 109.2500        20
 109.3000        20
 109.3500        21
 109.4000        25
 109.4500        23
 109.5000        18
 109.5500        28
 109.6000        20
 109.6500        15
 109.7000        22
 109.7500        21
 109.8000        19
 109.8500        17
 109.9000        21
 109.9500        15
 110.0000        24
