  10.0000        23
  10.0500        26
  10.1000        28
  10.1500        21
  10.2000        21
  10.2500        21
  10.3000        20
  10.3500        26
  10.4000        19
  10.4500        20
  10.5000        21
  10.5500        26
  10.6000        25
  10.6500        18
  10.7000        32
  10.7500        40
  10.8000        29
  10.8500        23
  10.9000        27
  10.9500        31
  11.0000        21
  11.0500        20
  11.1000        33
  11.1500        34
  11.2000        22
  11.2500        29
  11.3000        23
  11.3500        23
  11.4000        16
  11.4500        18
  11.5000        13
  11.5500        37
  11.6000        26
  11.6500        24
  11.7000        22
  11.7500        18
  11.8000        23
  11.8500        20
  11.9000        33
  11.9500        23
  12.0000        25
  12.0500        26
  12.1000        20
  12.1500        42
  12.2000        20
  12.2500        28
  12.3000        20
  12.3500        20
  12.4000        14
  12.4500        29
  12.5000        36
  12.5500        25
  12.6000        33
  12.6500        38
  12.7000        23
  12.7500        26
  12.8000        26
  12.8500        28
  12.9000        27
  12.9500        14
  13.0000        30
  13.0500        16
  13.1000        15
  13.1500        31
  13.2000        32
  13.2500        21
  13.3000        21
  13.3500        30
  13.4000        22
  13.4500        22
  13.5000        26
  13.5500        18
  13.6000        26
  13.6500        15
  13.7000        19
  13.7500        21
  13.8000        20
  13.8500        17
  13.9000        18
  13.9500        28
  14.0000        22
  14.0500        26
  14.1000        24
  14.1500        18
  14.2000        22
  14.2500        19
  14.3000        22
  14.3500        23
  14.4000        14
  14.4500        24
  14.5000        24
  14.5500        25
  14.6000        28
  14.6500        20
  14.7000        15
  14.7500        17
  14.8000        24
  14.8500        25
  14.9000        18
  14.9500        19
  15.0000        24
  15.0500        27
  15.1000        23
  15.1500        15
  15.2000        16
  15.2500        22
  15.3000        20
  15.3500        18
  15.4000        23
  15.4500        18
  15.5000        18
  15.5500        16
  15.6000        29
  15.6500        23
  15.7000        22
  15.7500        25
  15.8000        22
  15.8500        23
  15.9000        19
  15.9500        24
  16.0000        21
  16.0500        19
  16.1000        23
  16.1500        24
  16.2000        22
  16.2500        28
  16.3000        21
  16.3500        18
  16.4000        16
  16.4500        16
  16.5000        25
  16.5500        13
  16.6000        19
  16.6500        22
  16.7000        16
  16.7500        25
  16.8000        25
  16.8500        17
  16.9000        29
  16.9500        17
  17.0000        14
  17.0500        28
  17.1000        19
  17.1500        25
  17.2000        25
  17.2500        13
  17.3000        20
  17.3500        13
  17.4000        24
  17.4500        21
  17.5000        26
  17.5500        25
  17.6000        24
  17.6500        32
  17.7000        21
  17.7500        19
  17.8000        27
  17.8500        27
  17.9000        21
  17.9500        22
  18.0000        23
  18.0500        28
  18.1000        24
  18.1500        17
  18.2000        32
  18.2500        28
  18.3000        24
  18.3500        19
  18.4000        20
  18.4500        16
  18.5000        25
  18.5500        11
  18.6000        21
  18.6500        16
  18.7000        20
  18.7500        22
  18.8000        26
  18.8500        16
  18.9000        21
  18.9500        17
  19.0000        17
  19.0500        23
  19.1000        28
  19.1500        19
  19.2000        28
  19.2500        16
  19.3000        31
  19.3500        33
  19.4000        19
  19.4500        17
  19.5000        16
  19.5500        32
  19.6000        16
  19.6500        21
  19.7000        17
  19.7500        20
  19.8000        20
  19.8500        22
  19.9000        17
  19.9500        23
  20.0000        25
  20.0500        15
  20.1000        21
  20.1500        20
  20.2000        15
  20.2500        21
  20.3000        15
  20.3500        15
  20.4000        31
  20.4500        19
  20.5000        17
  20.5500        23
  20.6000        23
  20.6500        24
  20.7000        24
  20.7500        13
  20.8000        19
  20.8500        11
  20.9000        20
  20.9500        14
  21.0000        18
  21.0500        23
  21.1000        21
  21.1500        13
  21.2000        18
  21.2500        19
  21.3000        33
  21.3500        18
  21.4000        24
  21.4500        17
  21.5000        24
  21.5500        21
  21.6000        18
  21.6500        21
  21.7000        12
  21.7500        13
  21.8000        19
  21.8500        20
  21.9000        20
  21.9500        13
  22.0000        24
  22.0500        26
  22.1000        22
  22.1500        16
  22.2000        17
  22.2500        15
  22.3000        14
  22.3500        16
  22.4000        27
  22.4500        18
  22.5000        16
  22.5500        12
  22.6000        22
  22.6500        20
  22.7000        11
  22.7500        16
  22.8000        16
  22.8500        22
  22.9000        25
  22.9500        21
  23.0000        19
  23.0500        15
  23.1000        13
  23.1500        14
  23.2000        25
  23.2500        13
  23.3000        18
  23.3500        20
  23.4000        17
  23.4500        19
  23.5000        13
  23.5500        21
  23.6000        10
  23.6500        25
  23.7000        15
  23.7500        19
  23.8000        18
  23.8500        10
  23.9000        26
  23.9500        11
  24.0000        20
  24.0500        19
  24.1000        18
  24.1500        22
  24.2000        17
  24.2500        17
  24.3000        21
  24.3500        16
  24.4000        10
  24.4500        16
  24.5000        17
  24.5500        24
  24.6000        13
  24.6500        14
  24.7000        15
  24.7500        25
  24.8000        17
  24.8500        18
  24.9000         9
  24.9500        11
  25.0000        17
  25.0500        20
  25.1000        16
  25.1500        16
  25.2000        12
  25.2500        17
  25.3000        23
  25.3500        15
  25.4000        22
  25.4500        22
  25.5000        17
  25.5500        13
  25.6000        19
  25.6500        22
  25.7000        23
  25.7500        31
  25.8000        17
  25.8500        18
  25.9000        14
  25.9500        23
  26.0000        22
  26.0500        23
  26.1000        21
  26.1500        22
  26.2000        19
  26.2500        21
  26.3000        20
  26.3500        22
  26.4000        21
  26.4500        14
  26.5000        25
  26.5500        25
  26.6000        24
  26.6500        16
  26.7000        19
  26.7500        19
  26.8000        22
  26.8500        10
  26.9000        20
  26.9500        12
  27.0000        20
  27.0500        19
  27.1000        29
  27.1500        22
  27.2000        18
  27.2500        16
  27.3000        16
  27.3500        13
  27.4000        21
  27.4500        17
  27.5000        11
  27.5500        33
  27.6000        12
  27.6500        20
  27.7000        17
  27.7500        20
  27.8000        21
  27.8500        20
  27.9000        17
  27.9500        15
  28.0000        14
  28.0500        15
  28.1000        17
  28.1500        14
  28.2000        11
  28.2500        18
  28.3000        23
  28.3500        20
  28.4000        23
  28.4500         9
  28.5000        16
  28.5500        12
  28.6000        18
  28.6500        16
  28.7000        14
  28.7500        23
  28.8000        20
  28.8500        20
  28.9000        15
  28.9500        17
  29.0000        19
  29.0500        24
  29.1000        17
  29.1500        20
  29.2000        21
  29.2500        13
  29.3000        15
  29.3500        15
  29.4000        26
  29.4500        20
  29.5000        17
  29.5500        19
  29.6000        20
  29.6500        18
  29.7000        27
  29.7500        17
  29.8000        16
  29.8500        30
  29.9000        19
  29.9500        19
  30.0000        20
  30.0500        18
  30.1000        15
  30.1500        24
  30.2000        21
  30.2500        14
  30.3000        10
  30.3500        12
  30.4000        19
  30.4500        17
  30.5000        17
  30.5500        14
  30.6000        18
  30.6500        13
  30.7000        17
  30.7500        31
  30.8000        16
  30.8500        21
  30.9000        13
  30.9500        18
  31.0000        16
  31.0500        16
  31.1000        19
  31.1500        18
  31.2000        26
  31.2500        18
  31.3000        17
  31.3500        13
  31.4000        17
  31.4500        25
  31.5000        18
  31.5500        19
  31.6000        23
  31.6500        15
  31.7000        14
  31.7500        12
  31.8000        15
  31.8500        12
  31.9000        15
  31.9500        21
  32.0000        22
  32.0500        21
  32.1000        25
  32.1500        20
  32.2000        19
  32.2500        20
  32.3000        17
  32.3500        17
  32.4000        23
  32.4500        19
  32.5000        20
  32.5500        18
  32.6000        11
  32.6500        16
  32.7000        19
  32.7500        22
  32.8000        26
  32.8500        11
  32.9000        24
  32.9500        18
  33.0000        12
  33.0500        20
  33.1000        19
  33.1500        14
  33.2000        16
  33.2500        22
  33.3000        14
  33.3500        28
  33.4000        25
  33.4500        18
  33.5000        20
  33.5500        20
  33.6000        15
  33.6500        15
  33.7000        14
  33.7500        10
  33.8000        21
  33.8500        25
  33.9000        11
  33.9500        26
  34.0000        11
  34.0500        27
  34.1000        18
  34.1500         7
  34.2000        18
  34.2500        21
  34.3000        12
  34.3500        12
  34.4000        14
  34.4500        20
  34.5000        11
  34.5500        18
  34.6000        13
  34.6500         7
  34.7000        20
  34.7500        20
  34.8000        20
  34.8500        15
  34.9000        12
  34.9500        14
  35.0000        15
  35.0500        20
  35.1000        18
  35.1500        17
  35.2000        10
  35.2500        19
  35.3000        26
  35.3500        27
  35.4000        20
  35.4500        22
  35.5000        22
  35.5500        21
  35.6000        19
  35.6500        16
  35.7000        21
  35.7500        16
  35.8000        13
  35.8500        16
  35.9000        24
  35.9500        18
  36.0000        21
  36.0500        16
  36.1000        17
  36.1500        25
  36.2000        22
  36.2500        23
  36.3000        18
  36.3500        16
  36.4000        16
  36.4500        15
  36.5000        19
  36.5500        20
  36.6000        17
  36.6500        20
  36.7000        17
  36.7500        18
  36.8000        19
  36.8500        18
  36.9000        27
  36.9500        28
  37.0000        24
  37.0500        18
  37.1000        38
  37.1500        19
  37.2000        33
  37.2500        30
  37.3000        22
  37.3500        37
  37.4000        30
  37.4500        16
  37.5000        22
  37.5500        14
  37.6000        20
  37.6500        19
  37.7000        12
  37.7500        12
  37.8000        20
  37.8500        15
  37.9000        27
  37.9500        18
  38.0000        21
  38.0500        28
  38.1000        21
  38.1500        20
  38.2000        18
  38.2500        15
  38.3000        26
  38.3500        18
  38.4000        31
  38.4500        35
  38.5000        33
  38.5500        26
  38.6000        37
  38.6500        22
  38.7000        26
  38.7500        18
  38.8000        21
  38.8500        14
  38.9000         9
  38.9500        19
  39.0000        20
  39.0500        21
  39.1000        20
  39.1500        21
  39.2000        19
  39.2500        24
  39.3000        14
  39.3500        27
  39.4000        17
  39.4500        15
  39.5000        23
  39.5500        20
  39.6000        23
  39.6500        16
  39.7000        20
  39.7500        22
  39.8000        20
  39.8500        18
  39.9000        15
  39.9500        23
  40.0000        15
  40.0500        21
  40.1000        29
  40.1500        28
  40.2000        26
  40.2500        29
  40.3000        26
  40.3500        23
  40.4000        24
  40.4500        24
  40.5000        24
  40.5500        17
  40.6000        26
  40.6500        25
  40.7000        21
  40.7500        20
  40.8000        30
  40.8500        32
  40.9000        18
  40.9500        25
  41.0000        24
  41.0500        19
  41.1000        22
  41.1500        23
  41.2000        19
  41.2500        21
  41.3000        23
  41.3500        23
  41.4000        23
  41.4500        21
  41.5000        25
  41.5500        27
  41.6000        22
  41.6500        19
  41.7000        21
  41.7500        23
  41.8000        26
  41.8500        17
  41.9000        24
  41.9500        31
  42.0000        31
  42.0500        38
  42.1000        32
  42.1500        26
  42.2000        32
  42.2500        39
  42.3000        45
  42.3500        44
  42.4000        36
  42.4500        47
  42.5000        60
  42.5500        40
  42.6000        40
  42.6500        57
  42.7000        50
  42.7500        45
  42.8000        51
  42.8500        65
  42.9000        45
  42.9500        65
  43.0000        73
  43.0500        65
  43.1000       110
  43.1500       112
  43.2000       149
  43.2500       166
  43.3000       243
  43.3500       418
  43.4000       570
  43.4500       757
  43.5000      1103
  43.5500      1604
  43.6000      1775
  43.6500      1941
  43.7000      1755
  43.7500      1541
  43.8000      1298
  43.8500       794
  43.9000       518
  43.9500       382
  44.0000       228
  44.0500       181
  44.1000       123
  44.1500       109
  44.2000        79
  44.2500        62
  44.3000        69
  44.3500        64
  44.4000        52
  44.4500        58
  44.5000        44
  44.5500        38
  44.6000        35
  44.6500        41
  44.7000        40
  44.7500        30
  44.8000        39
  44.8500        28
  44.9000        23
  44.9500        33
  45.0000        23
  45.0500        28
  45.1000        32
  45.1500        27
  45.2000        19
  45.2500        23
  45.3000        27
  45.3500        25
  45.4000        24
  45.4500        25
  45.5000        33
  45.5500        23
  45.6000        23
  45.6500        23
  45.7000        23
  45.7500        23
  45.8000        35
  45.8500        22
  45.9000        22
  45.9500        34
  46.0000        19
  46.0500        32
  46.1000        22
  46.1500        25
  46.2000        19
  46.2500        32
  46.3000        31
  46.3500        25
  46.4000        21
  46.4500        33
  46.5000        22
  46.5500        13
  46.6000        20
  46.6500        23
  46.7000        26
  46.7500        18
  46.8000        25
  46.8500        18
  46.9000        17
  46.9500        22
  47.0000        29
  47.0500        22
  47.1000        18
  47.1500        19
  47.2000        24
  47.2500        18
  47.3000        23
  47.3500        16
  47.4000        23
  47.4500        15
  47.5000        24
  47.5500        24
  47.6000        22
  47.6500        18
  47.7000        25
  47.7500        22
  47.8000        17
  47.8500        19
  47.9000        22
  47.9500        20
  48.0000        25
  48.0500        25
  48.1000        15
  48.1500        19
  48.2000        20
  48.2500        23
  48.3000        19
  48.3500        25
  48.4000        21
  48.4500        25
  48.5000        24
  48.5500        20
  48.6000        22
  48.6500        25
  48.7000        19
  48.7500        27
  48.8000        26
  48.8500        19
  48.9000        24
  48.9500        24
  49.0000        17
  49.0500        28
  49.1000        23
  49.1500        31
  49.2000        28
  49.2500        36
  49.3000        31
  49.3500        31
  49.4000        28
  49.4500        32
  49.5000        35
  49.5500        35
  49.6000        35
  49.6500        29
  49.7000        38
  49.7500        32
  49.8000        33
  49.8500        37
  49.9000        32
  49.9500        41
  50.0000        46
  50.0500        48
  50.1000        64
  50.1500        47
  50.2000        54
  50.2500        80
  50.3000        78
  50.3500        87
  50.4000       111
  50.4500       165
  50.5000       198
  50.5500       252
  50.6000       329
  50.6500       372
  50.7000       450
  50.7500       517
  50.8000       583
  50.8500       595
  50.9000       551
  50.9500       527
  51.0000       448
  51.0500       353
  51.1000       294
  51.1500       243
  51.2000       203
  51.2500       149
  51.3000       111
  51.3500        88
  51.4000        76
  51.4500        75
  51.5000        54
  51.5500        52
  51.6000        45
  51.6500        35
  51.7000        43
  51.7500        32
  51.8000        28
  51.8500        31
  51.9000        26
  51.9500        34
  52.0000        22
  52.0500        24
  52.1000        28
  52.1500        24
  52.2000        34
  52.2500        21
  52.3000        27
  52.3500        23
  52.4000        21
  52.4500        18
  52.5000        22
  52.5500        28
  52.6000        17
  52.6500        18
  52.7000        19
  52.7500        18
  52.8000        22
  52.8500        24
  52.9000        17
  52.9500        27
  53.0000        26
  53.0500        22
  53.1000        20
  53.1500        21
  53.2000        21
  53.2500        16
  53.3000        34
  53.3500        21
  53.4000        22
  53.4500        26
  53.5000        19
  53.5500        22
  53.6000        27
  53.6500        19
  53.7000        10
  53.7500        23
  53.8000        26
  53.8500        20
  53.9000        13
  53.9500        21
  54.0000        24
  54.0500        20
  54.1000        16
  54.1500        17
  54.2000        20
  54.2500        19
  54.3000        12
  54.3500        21
  54.4000        21
  54.4500        21
  54.5000        19
  54.5500        27
  54.6000         9
  54.6500        13
  54.7000        20
  54.7500        17
  54.8000        12
  54.8500        21
  54.9000        25
  54.9500        21
  55.0000        25
  55.0500        25
  55.1000        15
  55.1500        18
  55.2000        21
  55.2500        20
  55.3000        21
  55.3500        17
  55.4000        24
  55.4500        15
  55.5000        17
  55.5500        21
  55.6000        18
  55.6500        15
  55.7000        14
  55.7500        26
  55.8000        22
  55.8500        14
  55.9000        18
  55.9500        21
  56.0000        24
  56.0500        14
  56.1000        17
  56.1500        13
  56.2000        13
  56.2500        15
  56.3000        25
  56.3500        19
  56.4000        13
  56.4500        11
  56.5000        16
  56.5500        16
  56.6000        22
  56.6500        13
  56.7000        15
  56.7500        23
  56.8000        26
  56.8500        15
  56.9000        19
  56.9500        27
  57.0000        15
  57.0500        20
  57.1000        20
  57.1500        23
  57.2000        23
  57.2500        16
  57.3000        18
  57.3500        15
  57.4000        17
  57.4500        14
  57.5000        20
  57.5500        23
  57.6000        14
  57.6500        13
  57.7000        22
  57.7500        20
  57.8000        19
  57.8500        22
  57.9000        18
  57.9500        24
  58.0000        20
  58.0500        19
  58.1000        16
  58.1500        29
  58.2000        20
  58.2500        17
  58.3000        18
  58.3500        25
  58.4000        20
  58.4500        17
  58.5000        16
  58.5500        19
  58.6000        16
  58.6500        22
  58.7000        14
  58.7500        22
  58.8000        16
  58.8500        13
  58.9000        22
  58.9500        22
  59.0000        16
  59.0500        23
  59.1000        16
  59.1500        22
  59.2000        14
  59.2500        13
  59.3000        10
  59.3500        18
  59.4000        14
  59.4500        16
  59.5000        20
  59.5500        19
  59.6000        14
  59.6500        17
  59.7000        19
  59.7500        21
  59.8000        19
  59.8500        23
  59.9000        11
  59.9500        15
  60.0000        15
  60.0500        18
  60.1000        19
  60.1500        23
  60.2000        13
  60.2500         7
  60.3000        23
  60.3500        15
  60.4000        20
  60.4500        19
  60.5000        14
  60.5500        14
  60.6000        22
  60.6500        21
  60.7000        19
  60.7500        25
  60.8000        17
  60.8500        21
  60.9000        27
  60.9500         9
  61.0000        22
  61.0500        19
  61.1000        14
  61.1500        18
  61.2000        21
  61.2500        27
  61.3000        16
  61.3500        14
  61.4000        14
  61.4500        24
  61.5000        19
  61.5500        25
  61.6000        23
  61.6500        20
  61.7000        16
  61.7500        18
  61.8000        17
  61.8500        19
  61.9000        19
  61.9500        26
  62.0000        19
  62.0500        31
  62.1000        22
  62.1500        22
  62.2000         8
  62.2500        15
  62.3000        22
  62.3500        16
  62.4000        22
  62.4500        23
  62.5000        18
  62.5500        22
  62.6000        22
  62.6500        24
  62.7000        29
  62.7500        16
  62.8000        24
  62.8500        18
  62.9000        25
  62.9500        18
  63.0000        30
  63.0500        14
  63.1000        18
  63.1500        22
  63.2000        31
  63.2500        18
  63.3000        24
  63.3500        34
  63.4000        17
  63.4500        18
  63.5000        21
  63.5500        18
  63.6000        17
  63.6500        17
  63.7000        18
  63.7500        12
  63.8000        14
  63.8500        19
  63.9000        13
  63.9500        12
  64.0000        21
  64.0500        17
  64.1000        15
  64.1500        12
  64.2000        16
  64.2500        26
  64.3000        24
  64.3500        15
  64.4000        25
  64.4500        11
  64.5000        21
  64.5500        20
  64.6000        14
  64.6500        19
  64.7000        18
  64.7500        15
  64.8000        21
  64.8500        17
  64.9000        17
  64.9500        15
  65.0000        20
  65.0500        23
  65.1000        11
  65.1500        16
  65.2000        14
  65.2500        20
  65.3000        25
  65.3500        24
  65.4000        19
  65.4500        15
  65.5000        18
  65.5500        18
  65.6000        13
  65.6500        18
  65.7000        24
  65.7500        15
  65.8000        19
  65.8500        17
  65.9000        24
  65.9500        13
  66.0000        14
  66.0500        15
  66.1000        12
  66.1500        17
  66.2000        22
  66.2500        13
  66.3000        14
  66.3500        15
  66.4000        28
  66.4500        20
  66.5000        16
  66.5500        23
  66.6000        18
  66.6500        20
  66.7000        21
  66.7500        11
  66.8000        18
  66.8500        15
  66.9000        17
  66.9500        19
  67.0000        19
  67.0500        23
  67.1000        16
  67.1500        18
  67.2000        11
  67.2500        16
  67.3000        17
  67.3500        19
  67.4000        23
  67.4500        18
  67.5000        18
  67.5500        12
  67.6000        14
  67.6500        16
  67.7000        15
  67.7500        15
  67.8000        15
  67.8500        27
  67.9000        11
  67.9500        18
  68.0000        23
  68.0500        19
  68.1000        15
  68.1500        15
  68.2000        14
  68.2500        16
  68.3000        16
  68.3500        17
  68.4000        23
  68.4500        15
  68.5000        18
  68.5500        20
  68.6000        16
  68.6500        15
  68.7000        25
  68.7500        22
  68.8000         9
  68.8500        16
  68.9000        21
  68.9500        19
  69.0000        17
  69.0500        16
  69.1000        16
  69.1500        26
  69.2000        19
  69.2500        15
  69.3000        18
  69.3500        25
  69.4000        22
  69.4500        22
  69.5000        20
  69.5500        24
  69.6000        25
  69.6500        17
  69.7000        19
  69.7500        13
  69.8000        16
  69.8500        26
  69.9000        13
  69.9500        15
  70.0000        28
  70.0500        18
  70.1000        14
  70.1500        17
  70.2000        23
  70.2500        14
  70.3000        17
  70.3500        23
  70.4000        19
  70.4500        16
  70.5000        20
  70.5500        10
  70.6000        22
  70.6500        19
  70.7000        23
  70.7500        19
  70.8000        20
  70.8500        12
  70.9000        15
  70.9500        21
  71.0000        13
  71.0500        11
  71.1000        17
  71.1500        19
  71.2000        16
  71.2500        29
  71.3000        21
  71.3500        11
  71.4000        27
  71.4500        19
  71.5000        15
  71.5500        19
  71.6000        16
  71.6500        22
  71.7000        27
  71.7500        20
  71.8000        25
  71.8500        15
  71.9000        18
  71.9500        15
  72.0000        17
  72.0500        17
  72.1000        20
  72.1500        28
  72.2000        19
  72.2500        23
  72.3000        19
  72.3500        23
  72.4000        26
  72.4500        31
  72.5000        15
  72.5500        25
  72.6000        18
  72.6500        15
  72.7000        22
  72.7500        26
  72.8000        18
  72.8500        10
  72.9000        24
  72.9500        14
  73.0000        22
  73.0500        23
  73.1000        22
  73.1500        21
  73.2000        16
  73.2500        18
  73.3000        31
  73.3500        20
  73.4000        23
  73.4500        33
  73.5000        32
  73.5500        36
  73.6000        25
  73.6500        27
  73.7000        31
  73.7500        30
  73.8000        32
  73.8500        29
  73.9000        31
  73.9500        30
  74.0000        35
  74.0500        35
  74.1000        31
  74.1500        46
  74.2000        56
  74.2500        59
  74.3000        87
  74.3500        88
  74.4000       105
  74.4500       116
  74.5000       164
  74.5500       153
  74.6000       200
  74.6500       244
  74.7000       278
  74.7500       261
  74.8000       228
  74.8500       260
  74.9000       258
  74.9500       214
  75.0000       184
  75.0500       171
  75.1000       152
  75.1500       135
  75.2000       132
  75.2500        90
  75.3000        78
  75.3500        62
  75.4000        45
  75.4500        54
  75.5000        37
  75.5500        37
  75.6000        36
  75.6500        34
  75.7000        34
  75.7500        38
  75.8000        30
  75.8500        21
  75.9000        24
  75.9500        31
  76.0000        21
  76.0500        24
  76.1000        20
  76.1500        36
  76.2000        31
  76.2500        26
  76.3000        23
  76.3500        26
  76.4000        27
  76.4500        30
  76.5000        17
  76.5500        23
  76.6000        23
  76.6500        19
  76.7000        28
  76.7500        22
  76.8000        24
  76.8500        23
  76.9000        13
  76.9500        23
  77.0000        27
  77.0500        19
  77.1000        22
  77.1500        22
  77.2000        17
  77.2500        25
  77.3000        20
  77.3500        12
  77.4000        17
  77.4500        27
  77.5000        20
  77.5500        21
  77.6000        18
  77.6500        16
  77.7000        15
  77.7500        21
  77.8000        16
  77.8500        22
  77.9000        24
  77.9500        23
  78.0000        24
  78.0500        21
  78.1000        20
  78.1500        25
  78.2000        26
  78.2500        16
  78.3000        10
  78.3500        21
  78.4000        17
  78.4500        21
  78.5000        14
  78.5500        18
  78.6000        23
  78.6500        22
  78.7000        22
  78.7500        21
  78.8000        14
  78.8500        27
  78.9000        22
  78.9500        18
  79.0000        17
  79.0500        32
  79.1000        21
  79.1500        21
  79.2000        21
  79.2500        22
  79.3000        23
  79.3500        22
  79.4000        26
  79.4500        19
  79.5000        19
  79.5500        18
  79.6000        18
  79.6500        14
  79.7000        23
  79.7500        24
  79.8000        24
  79.8500        20
  79.9000        13
  79.9500        21
  80.0000        20
  80.0500        18
  80.1000        22
  80.1500        20
  80.2000        15
  80.2500        18
  80.3000        19
  80.3500        21
  80.4000        18
  80.4500        24
  80.5000        20
  80.5500        28
  80.6000        16
  80.6500        13
  80.7000        16
  80.7500        21
  80.8000        30
  80.8500        14
  80.9000        25
  80.9500        22
  81.0000        20
  81.0500        16
  81.1000        27
  81.1500        21
  81.2000        22
  81.2500        16
  81.3000        22
  81.3500        24
  81.4000        18
  81.4500        14
  81.5000        13
  81.5500        19
  81.6000        23
  81.6500        18
  81.7000        16
  81.7500        22
  81.8000        20
  81.8500        20
  81.9000        24
  81.9500        25
  82.0000        22
  82.0500        23
  82.1000        13
  82.1500        28
  82.2000        24
  82.2500        16
  82.3000        12
  82.3500        23
  82.4000        12
  82.4500        14
  82.5000        21
  82.5500        20
  82.6000        26
  82.6500        14
  82.7000        21
  82.7500        25
  82.8000        14
  82.8500        16
  82.9000        20
  82.9500        17
  83.0000        17
  83.0500        28
  83.1000        10
  83.1500        13
  83.2000        21
  83.2500        24
  83.3000        24
  83.3500        20
  83.4000        22
  83.4500        16
  83.5000        12
  83.5500        25
  83.6000        18
  83.6500        16
  83.7000        20
  83.7500        26
  83.8000        20
  83.8500        12
  83.9000        19
  83.9500        23
  84.0000        26
  84.0500        19
  84.1000        20
  84.1500        20
  84.2000        24
  84.2500        31
  84.3000        21
  84.3500        29
  84.4000        29
  84.4500        19
  84.5000        24
  84.5500        19
  84.6000        25
  84.6500        14
  84.7000        21
  84.7500        24
  84.8000        12
  84.8500        17
  84.9000        14
  84.9500        23
  85.0000        21
  85.0500        22
  85.1000        21
  85.1500        14
  85.2000        14
  85.2500        24
  85.3000        18
  85.3500        25
  85.4000        14
  85.4500        21
  85.5000        18
  85.5500        13
  85.6000        17
  85.6500        18
  85.7000        22
  85.7500        26
  85.8000        22
  85.8500        18
  85.9000        17
  85.9500        19
  86.0000        22
  86.0500        17
  86.1000        20
  86.1500        21
  86.2000        17
  86.2500        22
  86.3000        20
  86.3500        17
  86.4000        23
  86.4500        20
  86.5000        21
  86.5500        31
  86.6000        15
  86.6500        22
  86.7000        18
  86.7500        18
  86.8000        23
  86.8500        19
  86.9000        25
  86.9500        26
  87.0000        24
  87.0500        19
  87.1000        18
  87.1500        20
  87.2000        30
  87.2500        22
  87.3000        32
  87.3500        26
  87.4000        28
  87.4500        18
  87.5000        23
  87.5500        13
  87.6000        28
  87.6500        23
  87.7000        23
  87.7500        14
  87.8000        17
  87.8500        22
  87.9000        13
  87.9500        26
  88.0000        24
  88.0500        19
  88.1000        26
  88.1500        20
  88.2000        24
  88.2500        18
  88.3000        27
  88.3500        21
  88.4000        25
  88.4500        15
  88.5000        21
  88.5500        29
  88.6000        24
  88.6500        31
  88.7000        34
  88.7500        20
  88.8000        24
  88.8500        24
  88.9000        23
  88.9500        24
  89.0000        29
  89.0500        25
  89.1000        31
  89.1500        35
  89.2000        21
  89.2500        22
  89.3000        27
  89.3500        27
  89.4000        24
  89.4500        29
  89.5000        29
  89.5500        32
  89.6000        38
  89.6500        32
  89.7000        39
  89.7500        46
  89.8000        42
  89.8500        37
  89.9000        46
  89.9500        43
  90.0000        59
  90.0500        48
  90.1000        53
  90.1500        63
  90.2000        73
  90.2500        83
  90.3000        79
  90.3500       108
  90.4000       118
  90.4500       125
  90.5000       158
  90.5500       165
  90.6000       176
  90.6500       202
  90.7000       183
  90.7500       246
  90.8000       246
  90.8500       216
  90.9000       222
  90.9500       203
  91.0000       182
  91.0500       170
  91.1000       193
  91.1500       150
  91.2000       128
  91.2500       113
  91.3000       107
  91.3500        83
  91.4000        83
  91.4500        72
  91.5000        86
  91.5500        61
  91.6000        66
  91.6500        46
  91.7000        43
  91.7500        30
  91.8000        46
  91.8500        37
  91.9000        32
  91.9500        31
  92.0000        38
  92.0500        32
  92.1000        40
  92.1500        34
  92.2000        28
  92.2500        12
  92.3000        26
  92.3500        21
  92.4000        42
  92.4500        19
  92.5000        25
  92.5500        35
  92.6000        32
  92.6500        19
  92.7000        22
  92.7500        20
  92.8000        16
  92.8500        28
  92.9000        22
  92.9500        25
  93.0000        23
  93.0500        20
  93.1000        17
  93.1500        21
  93.2000        24
  93.2500        24
  93.3000        24
  93.3500        19
  93.4000        27
  93.4500        27
  93.5000        24
  93.5500        29
  93.6000        18
  93.6500        19
  93.7000        20
  93.7500        27
  93.8000        26
  93.8500        22
  93.9000        21
  93.9500        21
  94.0000        24
  94.0500        17
  94.1000        17
  94.1500        18
  94.2000        25
  94.2500        15
  94.3000        23
  94.3500        21
  94.4000        19
  94.4500        28
  94.5000        18
  94.5500        24
  94.6000        21
  94.6500        23
  94.7000        19
  94.7500        22
  94.8000        19
  94.8500        19
  94.9000        23
  94.9500        25
  95.0000        28
  95.0500        22
  95.1000        27
  95.1500        23
  95.2000        20
  95.2500        33
  95.3000        20
  95.3500        26
  95.4000        35
  95.4500        44
  95.5000        33
  95.5500        38
  95.6000        45
  95.6500        41
  95.7000        49
  95.7500        56
  95.8000        51
  95.8500        70
  95.9000        86
  95.9500        68
  96.0000       106
  96.0500        74
  96.1000        84
  96.1500        79
  96.2000        89
  96.2500        94
  96.3000        72
  96.3500        76
  96.4000        69
  96.4500        64
  96.5000        59
  96.5500        56
  96.6000        43
  96.6500        40
  96.7000        34
  96.7500        36
  96.8000        40
  96.8500        28
  96.9000        27
  96.9500        28
  97.0000        42
  97.0500        18
  97.1000        25
  97.1500        28
  97.2000        23
  97.2500        20
  97.3000        23
  97.3500        33
  97.4000        17
  97.4500        22
  97.5000        27
  97.5500        17
  97.6000        25
  97.6500        23
  97.7000        25
  97.7500        22
  97.8000        17
  97.8500        20
  97.9000        26
  97.9500        27
  98.0000        21
  98.0500        16
  98.1000        23
  98.1500        17
  98.2000        18
  98.2500        20
  98.3000        26
  98.3500        27
  98.4000        20
  98.4500         8
  98.5000        21
  98.5500        12
  98.6000        17
  98.6500        29
  98.7000        22
  98.7500        15
  98.8000        13
  98.8500        33
  98.9000        16
  98.9500        27
  99.0000        17
  99.0500        16
  99.1000        19
  99.1500        15
  99.2000        20
  99.2500        26
  99.3000        15
  99.3500        17
  99.4000        14
  99.4500        33
  99.5000        17
  99.5500        19
  99.6000        24
  99.6500        22
  99.7000        26
  99.7500        20
  99.8000        20
  99.8500        18
  99.9000        22
  99.9500        15
 100.0000        24
 100.0500        25
 100.1000        18
 100.1500        16
 100.2000        21
 100.2500        34
 100.3000        15
 100.3500        28
 100.4000        23
 100.4500        16
 100.5000        15
 100.5500        19
 100.6000        21
 100.6500        16
 100.7000        21
 100.7500        21
 100.8000        29
 100.8500        15
 100.9000        18
 100.9500        25
 101.0000        14
 101.0500        17
 101.1000        19
 101.1500        26
 101.2000        25
 101.2500        19
 101.3000        24
 101.3500        13
 101.4000        28
 101.4500        20
 101.5000        21
 101.5500        14
 101.6000        22
 101.6500        17
 101.7000        20
 101.7500        29
 101.8000        21
 101.8500        24
 101.9000        17
 101.9500        19
 102.0000        19
 102.0500        12
 102.1000        27
 102.1500        20
 102.2000        20
 102.2500        23
 102.3000        18
 102.3500        23
 102.4000        25
 102.4500        18
 102.5000        25
 102.5500        23
 102.6000        13
 102.6500        16
 102.7000        29
 102.7500        23
 102.8000        28
 102.8500        19
 102.9000        15
 102.9500        18
 103.0000        16
 103.0500        18
 103.1000        17
 103.1500        18
 103.2000        15
 103.2500        22
 103.3000        19
 103.3500        16
 103.4000        24
 103.4500        21
 103.5000        17
 103.5500        11
 103.6000        19
 103.6500        13
 103.7000        17
 103.7500        22
 103.8000        18
 103.8500        19
 103.9000         6
 103.9500        27
 104.0000        20
 104.0500        25
 104.1000        21
 104.1500        16
 104.2000        23
 104.2500        25
 104.3000        27
 104.3500        20
 104.4000        17
 104.4500        18
 104.5000        13
 104.5500        31
 104.6000        14
 104.6500        11
 104.7000        24
 104.7500        15
 104.8000        13
 104.8500        23
 104.9000        17
 104.9500        14
 105.0000        12
 105.0500        18
 105.1000        28
 105.1500        17
 105.2000        14
 105.2500        20
 105.3000        23
 105.3500        22
 105.4000        16
 105.4500        22
 105.5000        23
 105.5500        15
 105.6000        14
 105.6500        22
 105.7000        20
 105.7500        16
 105.8000        22
 105.8500        18
 105.9000        19
 105.9500        22
 106.0000        17
 106.0500        12
 106.1000        16
 106.1500        17
 106.2000        15
 106.2500        21
 106.3000        14
 106.3500        25
 106.4000        16
 106.4500        11
 106.5000        17
 106.5500        27
 106.6000        22
 106.6500        19
 106.7000        24
 106.7500        26
 106.8000        19
 106.8500        20
 106.9000        11
 106.9500        22
 107.0000        18
 107.0500        19
 107.1000        18
 107.1500        13
 107.2000        22
 107.2500        19
 107.3000        14
 107.3500        19
 107.4000        16
 107.4500        21
 107.5000        20
 107.5500        19
 107.6000        23
 107.6500        17
 107.7000        18
 107.7500        20
 107.8000        22
 107.8500        21
 107.9000        18
 107.9500        23
 108.0000        19
 108.0500        18
 108.1000        22
 108.1500        20
 108.2000        22
 108.2500        13
 108.3000        22
 108.3500        13
 108.4000        22
 108.4500        22
 108.5000        16
 108.5500        13
 108.6000        17
 108.6500        17
 108.7000        17
 108.7500        10
 108.8000        21
 108.8500        32
 108.9000        13
 108.9500        17
 109.0000        23
 109.0500        19
 109.1000        17
 109.1500        19
 109.2000        14
 109.2500        21
 109.3000        17
 109.3500        34
 109.4000        20
 109.4500        22
 109.5000        25
 109.5500        14
 109.6000        17
 109.6500        26
 109.7000        21
 109.7500        15
 109.8000        26
 109.8500        23
 109.9000        20
 109.9500        19
 110.0000        15
