  10.0000        17
  10.0500        19
  10.1000         8
  10.1500        21
  10.2000        18
  10.2500        23
  10.3000        16
  10.3500        14
  10.4000        13
  10.4500         9
  10.5000        25
  10.5500        17
  10.6000        17
  10.6500        12
  10.7000        25
  10.7500        22
  10.8000        19
  10.8500        14
  10.9000        16
  10.9500        23
  11.0000        14
  11.0500        20
  11.1000        20
  11.1500        15
  11.2000        22
  11.2500        19
  11.3000        25
  11.3500        16
  11.4000        16
  11.4500        13
  11.5000        17
  11.5500        17
  11.6000        18
  11.6500        23
  11.7000        15
  11.7500        19
  11.8000        16
  11.8500        22
  11.9000        20
  11.9500        18
  12.0000        15
  12.0500        12
  12.1000        18
  12.1500        19
  12.2000        12
  12.2500        12
  12.3000        14
  12.3500        17
  12.4000        14
  12.4500        20
  12.5000        23
  12.5500        21
  12.6000        16
  12.6500        16
  12.7000        12
  12.7500        15
  12.8000        14
  12.8500        13
  12.9000        19
  12.9500        17
  13.0000        17
  13.0500        16
  13.1000        12
  13.1500        14
  13.2000        21
  13.2500        14
  13.3000        18
  13.3500        14
  13.4000        14
  13.4500        10
  13.5000        10
  13.5500        17
  13.6000        11
  13.6500        21
  13.7000        14
  13.7500         9
  13.8000        12
  13.8500        19
  13.9000        23
  13.9500        19
  14.0000        18
  14.0500         7
  14.1000        19
  14.1500        16
  14.2000        17
  14.2500        15
  14.3000        17
  14.3500         8
  14.4000        16
  14.4500        12
  14.5000        18
  14.5500        18
  14.6000        17
  14.6500        12
  14.7000        18
  14.7500        12
  14.8000         7
  14.8500        21
  14.9000        17
  14.9500        21
  15.0000        24
  15.0500        20
  15.1000        16
  15.1500        11
  15.2000        15
  15.2500        18
  15.3000        13
  15.3500        13
  15.4000        18
  15.4500        13
  15.5000        16
  15.5500        18
  15.6000        13
  15.6500        23
  15.7000        18
  15.7500        12
  15.8000        12
  15.8500        11
  15.9000        11
  15.9500        22
  16.0000        13
  16.0500        12
  16.1000        18
  16.1500        13
  16.2000        14
  16.2500        14
  16.3000        11
  16.3500        15
  16.4000        10
  16.4500        15
  16.5000        15
  16.5500        10
  16.6000        18
  16.6500        15
  16.7000        11
  16.7500        18
  16.8000        13
  16.8500        20
  16.9000        10
  16.9500         9
  17.0000        18
  17.0500         9
  17.1000        11
  17.1500        15
  17.2000        13
  17.2500        16
  17.3000        18
  17.3500        14
  17.4000        15
  17.4500        15
  17.5000        16
  17.5500        13
  17.6000        10
  17.6500        15
  17.7000        14
  17.7500        13
  17.8000        14
  17.8500        14
  17.9000        13
  17.9500        13
  18.0000         9
  18.0500         9
  18.1000        17
  18.1500        17
  18.2000        16
  18.2500        15
  18.3000        18
  18.3500        16
  18.4000        15
  18.4500         9
  18.5000        18
  18.5500        14
  18.6000        20
  18.6500        16
  18.7000        11
  18.7500        17
  18.8000        10
  18.8500         9
  18.9000        13
  18.9500        14
  19.0000        20
  19.0500        11
  19.1000        21
  19.1500        15
  19.2000        18
  19.2500        10
  19.3000        14
  19.3500        14
  19.4000        16
  19.4500        19
  19.5000        19
  19.5500        13
  19.6000        11
  19.6500        16
  19.7000         8
  19.7500        17
  19.8000        23
  19.8500        10
  19.9000        16
  19.9500        14
  20.0000        13
  20.0500        11
  20.1000        19
  20.1500         9
  20.2000        16
  20.2500        15
  20.3000        14
  20.3500        17
  20.4000        15
  20.4500        11
  20.5000        16
  20.5500        14
  20.6000        13
  20.6500        14
  20.7000        16
  20.7500        16
  20.8000         9
  20.8500        17
  20.9000        12
  20.9500         9
  21.0000        12
  21.0500        13
  21.1000        21
  21.1500        10
  21.2000         9
  21.2500        19
  21.3000        11
  21.3500        10
  21.4000         5
  21.4500        17
  21.5000        13
  21.5500        11
  21.6000        14
  21.6500        11
  21.7000        19
  21.7500        10
  21.8000        13
  21.8500        12
  21.9000        14
  21.9500        15
  22.0000         9
  22.0500        12
  22.1000        25
  22.1500         8
  22.2000         4
  22.2500        20
  22.3000        13
  22.3500        20
  22.4000        16
  22.4500        11
  22.5000        16
  22.5500        13
  22.6000        10
  22.6500        16
  22.7000        11
  22.7500        16
  22.8000        11
  22.8500        14
  22.9000         5
  22.9500        12
  23.0000        19
  23.0500        11
  23.1000        18
  23.1500        15
  23.2000        13
  23.2500        11
  23.3000         5
  23.3500        18
  23.4000        12
  23.4500        18
  23.5000        19
  23.5500        13
  23.6000        10
  23.6500        12
  23.7000        10
  23.7500         9
  23.8000         9
  23.8500        12
  23.9000        12
  23.9500        12
  24.0000        22
  24.0500        13
  24.1000        10
  24.1500        11
  24.2000        10
  24.2500        12
  24.3000         7
  24.3500        14
  24.4000        11
  24.4500        14
  24.5000        10
  24.5500         9
  24.6000        14
  24.6500        12
  24.7000         9
  24.7500        15
  24.8000        11
  24.8500        10
  24.9000         9
  24.9500        12
  25.0000        10
  25.0500        12
  25.1000        10
  25.1500        14
  25.2000         7
  25.2500        16
  25.3000        11
  25.3500        12
  25.4000        12
  25.4500        13
  25.5000         8
  25.5500        14
  25.6000        10
  25.6500         9
  25.7000        11
  25.7500         7
  25.8000         6
  25.8500         8
  25.9000        14
  25.9500         8
  26.0000        10
  26.0500        14
  26.1000         8
  26.1500         9
  26.2000         8
  26.2500         9
  26.3000        11
  26.3500        11
  26.4000        10
  26.4500        11
  26.5000        12
  26.5500        13
  26.6000        10
  26.6500        10
  26.7000         9
  26.7500        11
  26.8000         9
  26.8500        14
  26.9000        10
  26.9500        14
  27.0000        12
  27.0500        18
  27.1000        12
  27.1500        17
  27.2000        13
  27.2500         9
  27.3000        14
  27.3500        10
  27.4000         7
  27.4500        14
  27.5000        13
  27.5500        27
  27.6000        17
  27.6500        13
  27.7000        16
  27.7500        10
  27.8000        13
  27.8500        17
  27.9000        14
  27.9500        14
  28.0000        17
  28.0500        16
  28.1000        10
  28.1500        15
  28.2000        12
  28.2500        14
  28.3000        12
  28.3500        11
  28.4000        15
  28.4500        11
  28.5000        14
  28.5500        19
  28.6000         6
  28.6500         8
  28.7000         8
  28.7500         7
  28.8000         9
  28.8500        16
  28.9000        17
  28.9500        11
  29.0000        14
  29.0500        12
  29.1000        15
  29.1500        19
  29.2000        22
  29.2500         9
  29.3000        15
  29.3500         8
  29.4000        11
  29.4500         6
  29.5000        19
  29.5500         9
  29.6000        11
  29.6500        14
  29.7000        10
  29.7500         8
  29.8000        13
  29.8500        19
  29.9000        14
  29.9500         8
  30.0000        12
  30.0500        20
  30.1000        14
  30.1500        10
  30.2000        14
  30.2500        10
  30.3000        10
  30.3500        17
  30.4000        12
  30.4500        12
  30.5000        16
  30.5500        11
  30.6000         8
  30.6500        21
  30.7000        16
  30.7500        14
  30.8000        13
  30.8500        15
  30.9000        14
  30.9500        11
  31.0000        15
  31.0500        15
  31.1000        12
  31.1500        15
  31.2000        13
  31.2500        15
  31.3000         8
  31.3500        16
  31.4000        15
  31.4500        14
  31.5000         9
  31.5500        10
  31.6000        15
  31.6500        19
  31.7000        10
  31.7500        12
  31.8000        11
  31.8500        11
  31.9000        11
  31.9500        14
  32.0000        13
  32.0500         9
  32.1000        16
  32.1500        12
  32.2000        12
  32.2500        16
  32.3000        18
  32.3500        14
  32.4000        12
  32.4500        19
  32.5000        11
  32.5500        15
  32.6000         9
  32.6500        11
  32.7000        11
  32.7500        11
  32.8000        12
  32.8500         7
  32.9000        11
  32.9500        13
  33.0000        11
  33.0500        10
  33.1000        15
  33.1500        13
  33.2000        16
  33.2500         7
  33.3000         8
  33.3500         8
  33.4000        18
  33.4500        16
  33.5000        15
  33.5500        11
  33.6000        12
  33.6500        10
  33.7000        10
  33.7500        13
  33.8000         7
  33.8500         7
  33.9000        20
  33.9500         8
  34.0000         7
  34.0500         9
  34.1000        10
  34.1500        16
  34.2000        11
  34.2500        10
  34.3000        14
  34.3500         8
  34.4000        12
  34.4500        12
  34.5000        12
  34.5500        13
  34.6000        18
  34.6500        17
  34.7000        20
  34.7500        12
  34.8000        18
  34.8500        24
  34.9000        20
  34.9500        15
  35.0000        19
  35.0500        16
  35.1000        16
  35.1500        18
  35.2000        17
  35.2500        14
  35.3000        20
  35.3500        19
  35.4000        30
  35.4500        29
  35.5000        14
  35.5500        18
  35.6000        19
  35.6500        26
  35.7000        23
  35.7500        20
  35.8000        26
  35.8500        20
  35.9000        21
  35.9500        14
  36.0000        26
  36.0500        15
  36.1000        15
  36.1500        14
  36.2000        15
  36.2500        19
  36.3000        28
  36.3500        11
  36.4000        14
  36.4500        15
  36.5000        22
  36.5500        12
  36.6000        19
  36.6500        20
  36.7000        28
  36.7500        18
  36.8000        14
  36.8500        20
  36.9000        24
  36.9500        10
  37.0000        18
  37.0500        15
  37.1000        25
  37.1500        13
  37.2000        16
  37.2500        20
  37.3000        18
  37.3500        16
  37.4000        17
  37.4500        11
  37.5000        19
  37.5500        16
  37.6000        20
  37.6500        13
  37.7000        29
  37.7500        29
  37.8000        18
  37.8500        14
  37.9000        14
  37.9500        23
  38.0000        19
  38.0500        13
  38.1000        20
  38.1500        20
  38.2000        18
  38.2500        19
  38.3000        22
  38.3500        20
  38.4000        24
  38.4500        23
  38.5000        29
  38.5500        24
  38.6000        15
  38.6500        31
  38.7000        20
  38.7500        20
  38.8000        22
  38.8500        22
  38.9000        28
  38.9500        17
  39.0000        24
  39.0500        25
  39.1000        22
  39.1500        23
  39.2000        16
  39.2500        16
  39.3000        20
  39.3500        20
  39.4000        27
  39.4500        22
  39.5000        16
  39.5500        14
  39.6000        11
  39.6500        10
  39.7000        14
  39.7500        19
  39.8000        18
  39.8500        24
  39.9000        20
  39.9500        15
  40.0000        17
  40.0500        21
  40.1000        22
  40.1500        19
  40.2000        12
  40.2500         9
  40.3000        15
  40.3500        13
  40.4000        23
  40.4500        22
  40.5000        14
  40.5500        20
  40.6000        13
  40.6500        21
  40.7000        23
  40.7500         9
  40.8000        17
  40.8500        18
  40.9000        26
  40.9500        23
  41.0000        10
  41.0500        16
  41.1000        18
  41.1500        17
  41.2000        21
  41.2500        17
  41.3000        21
  41.3500        26
  41.4000        15
  41.4500        25
  41.5000        23
  41.5500        17
  41.6000        22
  41.6500        24
  41.7000        20
  41.7500        20
  41.8000        23
  41.8500        39
  41.9000        31
  41.9500        34
  42.0000        30
  42.0500        39
  42.1000        46
  42.1500        40
  42.2000        44
  42.2500        38
  42.3000        50
  42.3500        44
  42.4000        39
  42.4500        38
  42.5000        70
  42.5500        46
  42.6000        60
  42.6500        51
  42.7000        64
  42.7500        71
  42.8000        82
  42.8500       111
  42.9000       127
  42.9500       156
  43.0000       208
  43.0500       325
  43.1000       521
  43.1500       836
  43.2000      1289
  43.2500      1954
  43.3000      2581
  43.3500      3015
  43.4000      2868
  43.4500      2467
  43.5000      1740
  43.5500      1168
  43.6000       693
  43.6500       402
  43.7000       254
  43.7500       165
  43.8000       142
  43.8500        95
  43.9000        76
  43.9500        74
  44.0000        57
  44.0500        58
  44.1000        41
  44.1500        48
  44.2000        34
  44.2500        36
  44.3000        46
  44.3500        24
  44.4000        29
  44.4500        27
  44.5000        35
  44.5500        34
  44.6000        32
  44.6500        31
  44.7000        21
  44.7500        22
  44.8000        20
  44.8500        25
  44.9000        17
  44.9500        16
  45.0000        22
  45.0500        20
  45.1000        23
  45.1500        25
  45.2000        20
  45.2500        20
  45.3000        19
  45.3500        16
  45.4000        21
  45.4500        16
  45.5000        17
  45.5500        22
  45.6000        14
  45.6500        18
  45.7000        24
  45.7500        21
  45.8000        22
  45.8500        14
  45.9000        10
  45.9500        19
  46.0000        13
  46.0500        19
  46.1000        15
  46.1500        12
  46.2000        30
  46.2500        22
  46.3000        17
  46.3500        18
  46.4000        27
  46.4500        17
  46.5000        12
  46.5500        16
  46.6000        25
  46.6500        24
  46.7000        12
  46.7500        18
  46.8000        19
  46.8500        17
  46.9000        18
  46.9500        15
  47.0000        14
  47.0500        17
  47.1000        14
  47.1500        19
  47.2000        18
  47.2500        19
  47.3000        15
  47.3500        16
  47.4000        16
  47.4500        20
  47.5000        26
  47.5500        23
  47.6000        19
  47.6500        16
  47.7000        21
  47.7500        19
  47.8000        19
  47.8500         9
  47.9000        18
  47.9500        16
  48.0000        15
  48.0500        19
  48.1000        26
  48.1500        15
  48.2000        17
  48.2500        13
  48.3000        17
  48.3500        14
  48.4000        12
  48.4500        27
  48.5000        19
  48.5500        21
  48.6000        22
  48.6500        16
  48.7000        21
  48.7500        23
  48.8000        19
  48.8500        25
  48.9000        26
  48.9500        25
  49.0000        31
  49.0500        29
  49.1000        25
  49.1500        36
  49.2000        28
  49.2500        20
  49.3000        36
  49.3500        37
  49.4000        28
  49.4500        34
  49.5000        30
  49.5500        34
  49.6000        42
  49.6500        48
  49.7000        45
  49.7500        50
  49.8000        56
  49.8500        59
  49.9000        85
  49.9500        95
  50.0000       121
  50.0500       147
  50.1000       169
  50.1500       220
  50.2000       292
  50.2500       401
  50.3000       583
  50.3500       721
  50.4000       860
  50.4500       956
  50.5000       995
  50.5500       892
  50.6000       789
  50.6500       645
  50.7000       522
  50.7500       380
  50.8000       271
  50.8500       196
  50.9000       124
  50.9500       142
  51.0000        94
  51.0500        69
  51.1000        66
  51.1500        69
  51.2000        41
  51.2500        43
  51.3000        52
  51.3500        31
  51.4000        32
  51.4500        28
  51.5000        26
  51.5500        28
  51.6000        28
  51.6500        19
  51.7000        19
  51.7500        22
  51.8000        24
  51.8500        29
  51.9000        19
  51.9500        19
  52.0000        17
  52.0500        19
  52.1000        23
  52.1500        19
  52.2000        13
  52.2500        23
  52.3000        20
  52.3500        15
  52.4000        20
  52.4500        12
  52.5000        21
  52.5500        11
  52.6000        13
  52.6500         7
  52.7000        19
  52.7500        13
  52.8000        17
  52.8500        14
  52.9000        16
  52.9500        15
  53.0000        12
  53.0500        13
  53.1000        15
  53.1500        12
  53.2000        24
  53.2500        20
  53.3000        15
  53.3500        16
  53.4000        17
  53.4500        20
  53.5000        15
  53.5500        15
  53.6000        17
  53.6500        12
  53.7000        13
  53.7500        10
  53.8000        13
  53.8500        18
  53.9000        17
  53.9500        15
  54.0000        12
  54.0500        14
  54.1000        10
  54.1500         8
  54.2000        16
  54.2500        14
  54.3000        11
  54.3500        19
  54.4000        13
  54.4500        15
  54.5000        10
  54.5500        19
  54.6000        15
  54.6500         7
  54.7000        18
  54.7500        16
  54.8000        13
  54.8500        15
  54.9000        17
  54.9500        10
  55.0000        18
  55.0500        17
  55.1000        15
  55.1500         9
  55.2000        19
  55.2500         9
  55.3000        16
  55.3500        12
  55.4000        12
  55.4500         9
  55.5000        17
  55.5500        12
  55.6000         7
  55.6500        15
  55.7000        12
  55.7500        11
  55.8000        11
  55.8500        13
  55.9000        11
  55.9500         8
  56.0000        10
  56.0500        14
  56.1000         8
  56.1500        12
  56.2000        14
  56.2500        10
  56.3000         7
  56.3500        13
  56.4000         8
  56.4500        18
  56.5000        10
  56.5500        17
  56.6000        12
  56.6500        14
  56.7000         7
  56.7500        10
  56.8000        20
  56.8500        15
  56.9000         5
  56.9500        13
  57.0000        18
  57.0500        16
  57.1000        18
  57.1500        12
  57.2000        18
  57.2500         5
  57.3000        10
  57.3500        19
  57.4000         9
  57.4500        11
  57.5000        10
  57.5500        15
  57.6000        11
  57.6500        22
  57.7000        11
  57.7500        11
  57.8000        16
  57.8500        12
  57.9000        12
  57.9500        18
  58.0000        16
  58.0500        11
  58.1000        12
  58.1500        11
  58.2000        17
  58.2500        22
  58.3000        14
  58.3500        11
  58.4000        12
  58.4500         8
  58.5000        16
  58.5500         7
  58.6000        11
  58.6500         8
  58.7000         9
  58.7500         7
  58.8000         9
  58.8500         7
  58.9000         9
  58.9500        10
  59.0000        13
  59.0500        13
  59.1000        12
  59.1500        10
  59.2000        10
  59.2500        11
  59.3000         9
  59.3500        13
  59.4000        17
  59.4500        12
  59.5000         5
  59.5500        12
  59.6000        15
  59.6500         5
  59.7000         8
  59.7500        13
  59.8000         9
  59.8500         9
  59.9000         9
  59.9500        14
  60.0000        15
  60.0500         8
  60.1000        13
  60.1500        13
  60.2000        19
  60.2500        16
  60.3000         8
  60.3500        11
  60.4000        21
  60.4500        18
  60.5000        12
  60.5500         9
  60.6000        16
  60.6500        16
  60.7000        12
  60.7500        11
  60.8000        11
  60.8500         8
  60.9000        15
  60.9500        17
  61.0000        13
  61.0500        12
  61.1000        10
  61.1500        13
  61.2000        14
  61.2500        10
  61.3000        12
  61.3500        13
  61.4000        12
  61.4500        21
  61.5000        11
  61.5500        16
  61.6000        14
  61.6500        15
  61.7000        22
  61.7500         9
  61.8000        17
  61.8500        22
  61.9000        18
  61.9500        13
  62.0000         9
  62.0500        16
  62.1000        10
  62.1500        17
  62.2000        12
  62.2500        11
  62.3000         9
  62.3500        12
  62.4000        18
  62.4500        12
  62.5000        24
  62.5500        10
  62.6000        10
  62.6500         8
  62.7000        12
  62.7500        13
  62.8000        16
  62.8500        13
  62.9000        10
  62.9500        11
  63.0000         7
  63.0500        12
  63.1000         6
  63.1500        11
  63.2000        11
  63.2500         7
  63.3000        17
  63.3500         8
  63.4000        10
  63.4500        14
  63.5000        17
  63.5500        17
  63.6000         9
  63.6500        11
  63.7000         7
  63.7500         7
  63.8000        15
  63.8500        10
  63.9000        15
  63.9500        11
  64.0000        13
  64.0500        10
  64.1000        12
  64.1500        16
  64.2000        17
  64.2500        12
  64.3000        18
  64.3500         8
  64.4000         9
  64.4500        21
  64.5000        11
  64.5500        10
  64.6000         4
  64.6500        18
  64.7000        15
  64.7500        17
  64.8000        14
  64.8500        14
  64.9000         6
  64.9500        14
  65.0000        11
  65.0500        11
  65.1000        14
  65.1500         9
  65.2000        15
  65.2500        10
  65.3000        12
  65.3500        10
  65.4000        12
  65.4500        11
  65.5000        11
  65.5500        18
  65.6000        14
  65.6500        11
  65.7000         7
  65.7500        13
  65.8000        15
  65.8500        10
  65.9000        18
  65.9500        14
  66.0000        22
  66.0500        15
  66.1000        13
  66.1500        10
  66.2000        15
  66.2500        14
  66.3000        21
  66.3500        12
  66.4000        10
  66.4500        17
  66.5000        12
  66.5500        23
  66.6000        13
  66.6500        16
  66.7000        15
  66.7500        14
  66.8000        12
  66.8500         9
  66.9000         9
  66.9500        16
  67.0000        15
  67.0500        12
  67.1000        15
  67.1500         8
  67.2000        19
  67.2500         9
  67.3000        11
  67.3500         5
  67.4000         6
  67.4500        19
  67.5000        16
  67.5500        12
  67.6000        11
  67.6500        12
  67.7000        13
  67.7500        13
  67.8000        12
  67.8500        16
  67.9000        17
  67.9500        11
  68.0000        26
  68.0500         9
  68.1000        13
  68.1500        17
  68.2000        10
  68.2500        20
  68.3000        14
  68.3500        10
  68.4000        13
  68.4500        13
  68.5000        15
  68.5500        11
  68.6000        16
  68.6500         9
  68.7000        11
  68.7500         9
  68.8000        11
  68.8500        10
  68.9000         7
  68.9500        19
  69.0000         5
  69.0500        10
  69.1000        10
  69.1500        10
  69.2000        16
  69.2500        11
  69.3000        11
  69.3500        18
  69.4000        13
  69.4500        15
  69.5000        13
  69.5500        11
  69.6000        13
  69.6500        16
  69.7000        14
  69.7500        12
  69.8000        16
  69.8500        17
  69.9000        12
  69.9500        16
  70.0000        14
  70.0500        13
  70.1000        19
  70.1500        18
  70.2000        12
  70.2500        16
  70.3000         8
  70.3500        12
  70.4000        12
  70.4500        10
  70.5000        14
  70.5500        11
  70.6000        14
  70.6500        20
  70.7000        19
  70.7500         7
  70.8000        13
  70.8500        14
  70.9000        14
  70.9500        13
  71.0000        18
  71.0500        20
  71.1000        15
  71.1500        16
  71.2000        14
  71.2500        14
  71.3000        20
  71.3500        20
  71.4000        19
  71.4500        14
  71.5000        18
  71.5500        15
  71.6000        17
  71.6500        20
  71.7000        13
  71.7500        19
  71.8000        16
  71.8500        13
  71.9000        15
  71.9500        13
  72.0000        18
  72.0500        11
  72.1000        19
  72.1500        15
  72.2000        17
  72.2500        18
  72.3000        17
  72.3500        15
  72.4000        22
  72.4500        16
  72.5000        23
  72.5500        19
  72.6000        23
  72.6500        19
  72.7000        18
  72.7500        17
  72.8000        24
  72.8500        33
  72.9000        26
  72.9500        20
  73.0000        22
  73.0500        16
  73.1000        13
  73.1500        18
  73.2000        24
  73.2500        24
  73.3000        23
  73.3500        28
  73.4000        25
  73.4500        40
  73.5000        36
  73.5500        42
  73.6000        51
  73.6500        51
  73.7000        62
  73.7500       101
  73.8000       107
  73.8500       102
  73.9000       155
  73.9500       201
  74.0000       266
  74.0500       329
  74.1000       355
  74.1500       405
  74.2000       442
  74.2500       344
  74.3000       347
  74.3500       319
  74.4000       291
  74.4500       211
  74.5000       157
  74.5500       160
  74.6000       106
  74.6500        98
  74.7000        71
  74.7500        53
  74.8000        48
  74.8500        46
  74.9000        43
  74.9500        40
  75.0000        41
  75.0500        40
  75.1000        27
  75.1500        29
  75.2000        21
  75.2500        32
  75.3000        21
  75.3500        21
  75.4000        18
  75.4500        14
  75.5000        25
  75.5500        26
  75.6000        18
  75.6500        17
  75.7000        20
  75.7500        18
  75.8000        14
  75.8500        17
  75.9000        18
  75.9500        13
  76.0000        11
  76.0500        14
  76.1000        17
  76.1500        15
  76.2000        16
  76.2500        13
  76.3000        14
  76.3500        14
  76.4000        14
  76.4500        13
  76.5000        21
  76.5500        11
  76.6000        13
  76.6500        14
  76.7000        18
  76.7500        13
  76.8000        19
  76.8500        13
  76.9000        21
  76.9500        12
  77.0000        14
  77.0500        21
  77.1000        14
  77.1500        12
  77.2000        13
  77.2500        14
  77.3000        21
  77.3500        14
  77.4000        14
  77.4500        12
  77.5000        12
  77.5500        12
  77.6000        11
  77.6500        19
  77.7000        11
  77.7500         9
  77.8000        19
  77.8500         6
  77.9000        16
  77.9500         8
  78.0000        11
  78.0500        10
  78.1000        16
  78.1500        13
  78.2000        14
  78.2500        14
  78.3000        14
  78.3500        12
  78.4000        16
  78.4500        15
  78.5000        15
  78.5500         8
  78.6000        17
  78.6500        12
  78.7000        18
  78.7500        11
  78.8000        13
  78.8500        17
  78.9000        14
  78.9500        13
  79.0000        10
  79.0500        17
  79.1000         4
  79.1500        23
  79.2000        17
  79.2500         8
  79.3000        13
  79.3500        15
  79.4000        11
  79.4500        16
  79.5000        11
  79.5500        13
  79.6000         6
  79.6500        10
  79.7000         8
  79.7500        18
  79.8000        13
  79.8500         9
  79.9000        21
  79.9500        10
  80.0000        19
  80.0500        18
  80.1000        12
  80.1500        12
  80.2000        13
  80.2500        12
  80.3000        18
  80.3500         9
  80.4000        13
  80.4500         6
  80.5000        13
  80.5500        12
  80.6000         8
  80.6500        11
  80.7000        14
  80.7500        14
  80.8000         8
  80.8500         9
  80.9000        11
  80.9500        12
  81.0000         8
  81.0500        14
  81.1000        11
  81.1500         9
  81.2000        15
  81.2500        12
  81.3000        20
  81.3500        17
  81.4000         5
  81.4500        14
  81.5000         7
  81.5500        16
  81.6000        13
  81.6500        18
  81.7000        14
  81.7500        19
  81.8000        12
  81.8500        14
  81.9000        16
  81.9500        13
  82.0000        14
  82.0500        13
  82.1000        15
  82.1500         9
  82.2000         8
  82.2500        12
  82.3000        20
  82.3500         9
  82.4000        20
  82.4500        14
  82.5000        14
  82.5500        13
  82.6000        11
  82.6500        10
  82.7000        14
  82.7500        17
  82.8000        13
  82.8500        16
  82.9000        18
  82.9500         9
  83.0000        15
  83.0500        19
  83.1000        12
  83.1500         7
  83.2000        10
  83.2500        12
  83.3000        14
  83.3500        16
  83.4000        11
  83.4500        20
  83.5000        16
  83.5500        10
  83.6000        13
  83.6500        11
  83.7000        11
  83.7500        23
  83.8000        12
  83.8500        12
  83.9000        10
  83.9500        13
  84.0000        16
  84.0500        14
  84.1000         8
  84.1500        12
  84.2000        18
  84.2500        16
  84.3000        19
  84.3500        12
  84.4000         6
  84.4500        11
  84.5000         7
  84.5500        20
  84.6000        16
  84.6500        18
  84.7000        25
  84.7500        11
  84.8000        11
  84.8500        15
  84.9000        14
  84.9500        13
  85.0000        14
  85.0500        16
  85.1000        23
  85.1500        18
  85.2000         9
  85.2500         9
  85.3000        13
  85.3500        14
  85.4000        12
  85.4500        17
  85.5000        16
  85.5500        21
  85.6000        16
  85.6500        10
  85.7000        16
  85.7500        17
  85.8000         9
  85.8500        17
  85.9000        14
  85.9500        13
  86.0000        18
  86.0500        19
  86.1000        23
  86.1500        20
  86.2000        13
  86.2500        14
  86.3000         7
  86.3500        15
  86.4000        13
  86.4500        13
  86.5000        26
  86.5500        18
  86.6000        18
  86.6500        16
  86.7000        16
  86.7500        13
  86.8000        15
  86.8500        17
  86.9000        14
  86.9500        12
  87.0000        14
  87.0500        20
  87.1000        16
  87.1500        12
  87.2000        18
  87.2500        20
  87.3000        12
  87.3500        18
  87.4000        20
  87.4500        17
  87.5000        26
  87.5500        12
  87.6000        18
  87.6500        13
  87.7000        17
  87.7500        14
  87.8000        15
  87.8500        23
  87.9000        23
  87.9500        18
  88.0000        16
  88.0500        13
  88.1000        22
  88.1500        11
  88.2000        18
  88.2500        11
  88.3000        22
  88.3500        23
  88.4000        26
  88.4500        26
  88.5000        33
  88.5500        18
  88.6000        32
  88.6500        18
  88.7000        21
  88.7500        21
  88.8000        27
  88.8500        20
  88.9000        30
  88.9500        32
  89.0000        25
  89.0500        33
  89.1000        35
  89.1500        45
  89.2000        31
  89.2500        45
  89.3000        63
  89.3500        58
  89.4000        88
  89.4500        80
  89.5000        86
  89.5500       105
  89.6000       120
  89.6500       158
  89.7000       172
  89.7500       198
  89.8000       271
  89.8500       295
  89.9000       311
  89.9500       386
  90.0000       350
  90.0500       323
  90.1000       300
  90.1500       271
  90.2000       292
  90.2500       256
  90.3000       205
  90.3500       188
  90.4000       168
  90.4500       112
  90.5000       111
  90.5500        92
  90.6000        82
  90.6500        63
  90.7000        51
  90.7500        53
  90.8000        54
  90.8500        45
  90.9000        34
  90.9500        45
  91.0000        35
  91.0500        33
  91.1000        29
  91.1500        29
  91.2000        25
  91.2500        22
  91.3000        24
  91.3500        22
  91.4000        18
  91.4500        17
  91.5000        20
  91.5500        17
  91.6000        19
  91.6500        23
  91.7000        17
  91.7500        17
  91.8000        20
  91.8500        21
  91.9000         7
  91.9500        20
  92.0000        11
  92.0500        23
  92.1000        13
  92.1500        12
  92.2000        19
  92.2500        18
  92.3000        18
  92.3500        19
  92.4000        17
  92.4500        23
  92.5000        19
  92.5500        12
  92.6000        15
  92.6500        20
  92.7000        21
  92.7500        14
  92.8000        12
  92.8500        15
  92.9000        14
  92.9500        12
  93.0000        16
  93.0500        16
  93.1000        17
  93.1500        19
  93.2000        19
  93.2500        19
  93.3000        19
  93.3500        17
  93.4000        13
  93.4500        10
  93.5000        16
  93.5500        13
  93.6000        22
  93.6500        16
  93.7000        11
  93.7500        10
  93.8000        19
  93.8500        20
  93.9000        14
  93.9500        11
  94.0000        14
  94.0500        15
  94.1000        19
  94.1500        24
  94.2000        20
  94.2500        11
  94.3000        27
  94.3500        13
  94.4000        27
  94.4500        16
  94.5000        21
  94.5500        24
  94.6000        27
  94.6500        24
  94.7000        33
  94.7500        36
  94.8000        38
  94.8500        38
  94.9000        45
  94.9500        61
  95.0000        78
  95.0500        86
  95.1000       107
  95.1500       118
  95.2000       125
  95.2500       106
  95.3000       104
  95.3500       110
  95.4000        91
  95.4500        83
  95.5000        77
  95.5500        71
  95.6000        65
  95.6500        48
  95.7000        40
  95.7500        37
  95.8000        26
  95.8500        26
  95.9000        15
  95.9500        19
  96.0000        21
  96.0500        19
  96.1000        19
  96.1500        15
  96.2000        14
  96.2500        19
  96.3000         8
  96.3500        14
  96.4000        17
  96.4500        17
  96.5000        16
  96.5500        15
  96.6000        19
  96.6500        14
  96.7000        13
  96.7500        10
  96.8000        12
  96.8500        12
  96.9000        12
  96.9500        15
  97.0000        11
  97.0500         8
  97.1000        13
  97.1500        21
  97.2000        19
  97.2500        11
  97.3000         9
  97.3500         7
  97.4000        18
  97.4500         8
  97.5000        13
  97.5500        15
  97.6000        11
  97.6500        16
  97.7000        13
  97.7500         9
  97.8000        15
  97.8500        23
  97.9000        14
  97.9500         7
  98.0000        13
  98.0500        16
  98.1000        19
  98.1500        11
  98.2000        19
  98.2500        17
  98.3000        11
  98.3500        13
  98.4000        14
  98.4500         7
  98.5000        11
  98.5500        10
  98.6000         5
  98.6500        10
  98.7000        15
  98.7500         8
  98.8000        17
  98.8500        10
  98.9000        19
  98.9500        18
  99.0000        10
  99.0500        13
  99.1000        11
  99.1500        10
  99.2000         6
  99.2500         8
  99.3000        16
  99.3500        11
  99.4000        13
  99.4500         9
  99.5000        13
  99.5500        12
  99.6000        14
  99.6500        13
  99.7000        15
  99.7500        11
  99.8000        16
  99.8500        12
  99.9000        10
  99.9500         7
 100.0000        11
 100.0500        12
 100.1000        11
 100.1500        11
 100.2000        13
 100.2500        10
 100.3000        10
 100.3500        10
 100.4000        11
 100.4500        12
 100.5000        13
 100.5500         8
 100.6000        20
 100.6500         9
 100.7000        16
 100.7500        13
 100.8000        12
 100.8500        14
 100.9000        13
 100.9500        16
 101.0000        10
 101.0500         9
 101.1000        14
 101.1500        16
 101.2000        12
 101.2500        14
 101.3000        19
 101.3500        12
 101.4000        13
 101.4500        18
 101.5000         4
 101.5500        11
 101.6000         9
 101.6500        16
 101.7000        14
 101.7500        15
 101.8000         9
 101.8500        12
 101.9000        10
 101.9500        15
 102.0000        14
 102.0500        13
 102.1000        16
 102.1500        12
 102.2000        10
 102.2500        14
 102.3000         6
 102.3500        20
 102.4000        18
 102.4500        14
 102.5000        10
 102.5500        15
 102.6000         8
 102.6500        12
 102.7000        20
 102.7500        10
 102.8000        15
 102.8500         8
 102.9000         9
 102.9500        15
 103.0000        11
 103.0500        15
 103.1000        14
 103.1500        13
 103.2000        15
 103.2500        16
 103.3000        10
 103.3500        13
 103.4000        15
 103.4500        17
 103.5000         6
 103.5500        12
 103.6000        14
 103.6500         8
 103.7000         6
 103.7500         6
 103.8000        15
 103.8500        10
 103.9000         7
 103.9500        20
 104.0000        16
 104.0500        14
 104.1000        12
 104.1500         9
 104.2000        16
 104.2500         9
 104.3000        14
 104.3500        16
 104.4000        20
 104.4500         5
 104.5000        11
 104.5500        12
 104.6000        13
 104.6500        12
 104.7000        10
 104.7500         7
 104.8000        17
 104.8500        11
 104.9000        18
 104.9500        17
 105.0000        11
 105.0500        11
 105.1000        11
 105.1500        10
 105.2000        14
 105.2500        12
 105.3000         6
 105.3500        14
 105.4000         6
 105.4500        10
 105.5000        15
 105.5500         9
 105.6000        15
 105.6500        14
 105.7000        10
 105.7500        16
 105.8000        14
 105.8500        14
 105.9000        13
 105.9500        15
 106.0000        13
 106.0500        17
 106.1000        19
 106.1500        12
 106.2000        15
 106.2500        13
 106.3000        16
 106.3500        12
 106.4000        10
 106.4500        13
 106.5000        14
 106.5500         5
 106.6000        16
 106.6500        11
 106.7000        13
 106.7500        13
 106.8000        10
 106.8500        13
 106.9000        11
 106.9500        12
 107.0000         5
 107.0500        16
 107.1000        15
 107.1500        11
 107.2000         7
 107.2500        11
 107.3000         6
 107.3500        11
 107.4000        20
 107.4500        12
 107.5000        12
 107.5500        10
 107.6000        11
 107.6500        10
 107.7000        11
 107.7500        17
 107.8000         8
 107.8500        11
 107.9000         4
 107.9500        13
 108.0000        13
 108.0500        11
 108.1000         9
 108.1500         7
 108.2000        10
 108.2500        14
 108.3000        11
 108.3500        10
 108.4000        11
 108.4500        10
 108.5000        13
 108.5500         8
 108.6000         5
 108.6500        10
 108.7000         9
 108.7500        12
 108.8000         9
 108.8500        12
 108.9000        13
 108.9500        10
 109.0000        16
 109.0500        14
 109.1000        14
 109.1500        18
 109.2000        15
 109.2500        10
 109.3000        13
 109.3500         9
 109.4000        10
 109.4500        11
 109.5000        10
 109.5500        13
 109.6000        13
 109.6500         9
 109.7000        10
 109.7500         8
 109.8000        14
 109.8500        13
 109.9000        12
 109.9500        14
 110.0000         6
