  10.0000        16
  10.0500        15
  10.1000        24
  10.1500        19
  10.2000        16
  10.2500        18
  10.3000        24
  10.3500        22
  10.4000        18
  10.4500        12
  10.5000        28
  10.5500        11
  10.6000        20
  10.6500        19
  10.7000        16
  10.7500        19
  10.8000        21
  10.8500        19
  10.9000        20
  10.9500        22
  11.0000        13
  11.0500        18
  11.1000        14
  11.1500        17
  11.2000        11
  11.2500        15
  11.3000        19
  11.3500        17
  11.4000        12
  11.4500        16
  11.5000        15
  11.5500        13
  11.6000        14
  11.6500        16
  11.7000        12
  11.7500        15
  11.8000        12
  11.8500        16
  11.9000        14
  11.9500        28
  12.0000        15
  12.0500        19
  12.1000        16
  12.1500        17
  12.2000        13
  12.2500        17
  12.3000        11
  12.3500        18
  12.4000        15
  12.4500         9
  12.5000        17
  12.5500        17
  12.6000         8
  12.6500        11
  12.7000        20
  12.7500        12
  12.8000        14
  12.8500        18
  12.9000        14
  12.9500        14
  13.0000        20
  13.0500        13
  13.1000        24
  13.1500        18
  13.2000        15
  13.2500        16
  13.3000        14
  13.3500        14
  13.4000        10
  13.4500        11
  13.5000        16
  13.5500        15
  13.6000        17
  13.6500        10
  13.7000        14
  13.7500        18
  13.8000        27
  13.8500        24
  13.9000        15
  13.9500        17
  14.0000        10
  14.0500        14
  14.1000        15
  14.1500        15
  14.2000        15
  14.2500        21
  14.3000        21
  14.3500        11
  14.4000        11
  14.4500        12
  14.5000        20
  14.5500        14
  14.6000        12
  14.6500        16
  14.7000        10
  14.7500        21
  14.8000        17
  14.8500        13
  14.9000         9
  14.9500        13
  15.0000        18
  15.0500         9
  15.1000         9
  15.1500        16
  15.2000        12
  15.2500        11
  15.3000        13
  15.3500         9
  15.4000        12
  15.4500        17
  15.5000        18
  15.5500         8
  15.6000        15
  15.6500        11
  15.7000        19
  15.7500        13
  15.8000        13
  15.8500        16
  15.9000        13
  15.9500        15
  16.0000        15
  16.0500        15
  16.1000        13
  16.1500        16
  16.2000        14
  16.2500        15
  16.3000        19
  16.3500        13
  16.4000         7
  16.4500        20
  16.5000        18
  16.5500        13
  16.6000        15
  16.6500        16
  16.7000        19
  16.7500        18
  16.8000        16
  16.8500        15
  16.9000         9
  16.9500        15
  17.0000        12
  17.0500        12
  17.1000        18
  17.1500        14
  17.2000        13
  17.2500        15
  17.3000        12
  17.3500         8
  17.4000        13
  17.4500        13
  17.5000        16
  17.5500        13
  17.6000        12
  17.6500        12
  17.7000        18
  17.7500        22
  17.8000        15
  17.8500        20
  17.9000        19
  17.9500        13
  18.0000        10
  18.0500        12
  18.1000        21
  18.1500        20
  18.2000        15
  18.2500        11
  18.3000        13
  18.3500        14
  18.4000        12
  18.4500        19
  18.5000        15
  18.5500        18
  18.6000        11
  18.6500        14
  18.7000        15
  18.7500        24
  18.8000        15
  18.8500        10
  18.9000        12
  18.9500        16
  19.0000        14
  19.0500         8
  19.1000        14
  19.1500         9
  19.2000        17
  19.2500        13
  19.3000        14
  19.3500        10
  19.4000        15
  19.4500        10
  19.5000         7
  19.5500        19
  19.6000        17
  19.6500        12
  19.7000        15
  19.7500        18
  19.8000        20
  19.8500        14
  19.9000        14
  19.9500        23
  20.0000        17
  20.0500        15
  20.1000        14
  20.1500         9
  20.2000         8
  20.2500        11
  20.3000        16
  20.3500        18
  20.4000        10
  20.4500        13
  20.5000        11
  20.5500        12
  20.6000        15
  20.6500         7
  20.7000        13
  20.7500        13
  20.8000        14
  20.8500         8
  20.9000        11
  20.9500        12
  21.0000         7
  21.0500        12
  21.1000         7
  21.1500        16
  21.2000        15
  21.2500         8
  21.3000        12
  21.3500        14
  21.4000        14
  21.4500         5
  21.5000        10
  21.5500        11
  21.6000        16
  21.6500        18
  21.7000        16
  21.7500        11
  21.8000        10
  21.8500        13
  21.9000        12
  21.9500        16
  22.0000        11
  22.0500         6
  22.1000        10
  22.1500         9
  22.2000        18
  22.2500        14
  22.3000        13
  22.3500        14
  22.4000        17
  22.4500         8
  22.5000         6
  22.5500        10
  22.6000        15
  22.6500        13
  22.7000        14
  22.7500        20
  22.8000        11
  22.8500        11
  22.9000        12
  22.9500        14
  23.0000         9
  23.0500        12
  23.1000        21
  23.1500        12
  23.2000        16
  23.2500        14
  23.3000        12
  23.3500        10
  23.4000        11
  23.4500        14
  23.5000         9
  23.5500        17
  23.6000        18
  23.6500        14
  23.7000        12
  23.7500        23
  23.8000        10
  23.8500        15
  23.9000         9
  23.9500        12
  24.0000        14
  24.0500         8
  24.1000         8
  24.1500        12
  24.2000        12
  24.2500         4
  24.3000        11
  24.3500        12
  24.4000         5
  24.4500        10
  24.5000        11
  24.5500        11
  24.6000        11
  24.6500        13
  24.7000        15
  24.7500        18
  24.8000        18
  24.8500        10
  24.9000        14
  24.9500        16
  25.0000        16
  25.0500         6
  25.1000        14
  25.1500         8
  25.2000        15
  25.2500         9
  25.3000        14
  25.3500        10
  25.4000         9
  25.4500        12
  25.5000        18
  25.5500        19
  25.6000        10
  25.6500         9
  25.7000         7
  25.7500         8
  25.8000        17
  25.8500         5
  25.9000        14
  25.9500        13
  26.0000        12
  26.0500        16
  26.1000         7
  26.1500        11
  26.2000        11
  26.2500        13
  26.3000        15
  26.3500        20
  26.4000         4
  26.4500        13
  26.5000        17
  26.5500        15
  26.6000        12
  26.6500        11
  26.7000        10
  26.7500        10
  26.8000        11
  26.8500        13
  26.9000        15
  26.9500        10
  27.0000         7
  27.0500        15
  27.1000        16
  27.1500        12
  27.2000        11
  27.2500         8
  27.3000        15
  27.3500        12
  27.4000        11
  27.4500        10
  27.5000        14
  27.5500        12
  27.6000        13
  27.6500        11
  27.7000         9
  27.7500         9
  27.8000         7
  27.8500        12
  27.9000        11
  27.9500        14
  28.0000        12
  28.0500         9
  28.1000         4
  28.1500        18
  28.2000        10
  28.2500        12
  28.3000        12
  28.3500        10
  28.4000         7
  28.4500        11
  28.5000        14
  28.5500        13
  28.6000        12
  28.6500         7
  28.7000        13
  28.7500        12
  28.8000        13
  28.8500        12
  28.9000         9
  28.9500        17
  29.0000        10
  29.0500        16
  29.1000        12
  29.1500         9
  29.2000        14
  29.2500         7
  29.3000        10
  29.3500        13
  29.4000         9
  29.4500        13
  29.5000         9
  29.5500        11
  29.6000        13
  29.6500        11
  29.7000        13
  29.7500        14
  29.8000        12
  29.8500        16
  29.9000         8
  29.9500        15
  30.0000        15
  30.0500        12
  30.1000        20
  30.1500        15
  30.2000         8
  30.2500         5
  30.3000        15
  30.3500        11
  30.4000        10
  30.4500        12
  30.5000        17
  30.5500        10
  30.6000         8
  30.6500        15
  30.7000        16
  30.7500        13
  30.8000        19
  30.8500        13
  30.9000        12
  30.9500        11
  31.0000        10
  31.0500        16
  31.1000        11
  31.1500        10
  31.2000        14
  31.2500        13
  31.3000         5
  31.3500        12
  31.4000         7
  31.4500        13
  31.5000        12
  31.5500        10
  31.6000        11
  31.6500        11
  31.7000        14
  31.7500        12
  31.8000        18
  31.8500         9
  31.9000        15
  31.9500        14
  32.0000        13
  32.0500        11
  32.1000         9
  32.1500        14
  32.2000        14
  32.2500        16
  32.3000        18
  32.3500        18
  32.4000        13
  32.4500         9
  32.5000        12
  32.5500        15
  32.6000        15
  32.6500        17
  32.7000        12
  32.7500        11
  32.8000        10
  32.8500        15
  32.9000        16
  32.9500        12
  33.0000        15
  33.0500        12
  33.1000        16
  33.1500        12
  33.2000        12
  33.2500        11
  33.3000         9
  33.3500        18
  33.4000        11
  33.4500        15
  33.5000         8
  33.5500        14
  33.6000        11
  33.6500        14
  33.7000        10
  33.7500        23
  33.8000        12
  33.8500        12
  33.9000        16
  33.9500        14
  34.0000        13
  34.0500        14
  34.1000        18
  34.1500         8
  34.2000        17
  34.2500        13
  34.3000        19
  34.3500        20
  34.4000        11
  34.4500        10
  34.5000         9
  34.5500        11
  34.6000        11
  34.6500        23
  34.7000        22
  34.7500        20
  34.8000        17
  34.8500        18
  34.9000        17
  34.9500        19
  35.0000        10
  35.0500        15
  35.1000        21
  35.1500        23
  35.2000        16
  35.2500        26
  35.3000        28
  35.3500        19
  35.4000        23
  35.4500        15
  35.5000        20
  35.5500        25
  35.6000        26
  35.6500        25
  35.7000        27
  35.7500        24
  35.8000        20
  35.8500        24
  35.9000        19
  35.9500        19
  36.0000        15
  36.0500        15
  36.1000        20
  36.1500        26
  36.2000        17
  36.2500        16
  36.3000        32
  36.3500        12
  36.4000        15
  36.4500        18
  36.5000        16
  36.5500        17
  36.6000        22
  36.6500        21
  36.7000        21
  36.7500        19
  36.8000        15
  36.8500        18
  36.9000        12
  36.9500        28
  37.0000        14
  37.0500        17
  37.1000        16
  37.1500        17
  37.2000        12
  37.2500        15
  37.3000        13
  37.3500        13
  37.4000        25
  37.4500        16
  37.5000        27
  37.5500        16
  37.6000        11
  37.6500        21
  37.7000        24
  37.7500        18
  37.8000        17
  37.8500        19
  37.9000        21
  37.9500        23
  38.0000        11
  38.0500        21
  38.1000        20
  38.1500        24
  38.2000        15
  38.2500        21
  38.3000        27
  38.3500        20
  38.4000        22
  38.4500        19
  38.5000        27
  38.5500        17
  38.6000        13
  38.6500        26
  38.7000        26
  38.7500        24
  38.8000        27
  38.8500        23
  38.9000        17
  38.9500        16
  39.0000        17
  39.0500        23
  39.1000        28
  39.1500        20
  39.2000        17
  39.2500        18
  39.3000        23
  39.3500        22
  39.4000        16
  39.4500        15
  39.5000        16
  39.5500        14
  39.6000        21
  39.6500        19
  39.7000        21
  39.7500        17
  39.8000        13
  39.8500        14
  39.9000        13
  39.9500        23
  40.0000        18
  40.0500        24
  40.1000        14
  40.1500        13
  40.2000        14
  40.2500        21
  40.3000        12
  40.3500        18
  40.4000        24
  40.4500         9
  40.5000        14
  40.5500        13
  40.6000        15
  40.6500        22
  40.7000        12
  40.7500        15
  40.8000        14
  40.8500        15
  40.9000        21
  40.9500        26
  41.0000        24
  41.0500        17
  41.1000        16
  41.1500        18
  41.2000        18
  41.2500        19
  41.3000        29
  41.3500        23
  41.4000        19
  41.4500        20
  41.5000        19
  41.5500        20
  41.6000        20
  41.6500        24
  41.7000        26
  41.7500        27
  41.8000        26
  41.8500        28
  41.9000        36
  41.9500        49
  42.0000        38
  42.0500        42
  42.1000        32
  42.1500        35
  42.2000        50
  42.2500        36
  42.3000        47
  42.3500        50
  42.4000        45
  42.4500        58
  42.5000        50
  42.5500        52
  42.6000        57
  42.6500        56
  42.7000        64
  42.7500        70
  42.8000        70
  42.8500        99
  42.9000       111
  42.9500       151
  43.0000       209
  43.0500       287
  43.1000       465
  43.1500       745
  43.2000      1319
  43.2500      1897
  43.3000      2508
  43.3500      2770
  43.4000      2742
  43.4500      2307
  43.5000      1621
  43.5500      1120
  43.6000       639
  43.6500       420
  43.7000       262
  43.7500       169
  43.8000       130
  43.8500       112
  43.9000        80
  43.9500        69
  44.0000        53
  44.0500        58
  44.1000        44
  44.1500        42
  44.2000        34
  44.2500        25
  44.3000        32
  44.3500        31
  44.4000        32
  44.4500        32
  44.5000        34
  44.5500        27
  44.6000        18
  44.6500        26
  44.7000        29
  44.7500        22
  44.8000        17
  44.8500        21
  44.9000        28
  44.9500        25
  45.0000        21
  45.0500        13
  45.1000        28
  45.1500        16
  45.2000        20
  45.2500        21
  45.3000        18
  45.3500        29
  45.4000        23
  45.4500        20
  45.5000        22
  45.5500        18
  45.6000        16
  45.6500        22
  45.7000        20
  45.7500        13
  45.8000        17
  45.8500        21
  45.9000        19
  45.9500        14
  46.0000        21
  46.0500        19
  46.1000        12
  46.1500        17
  46.2000        13
  46.2500        23
  46.3000        13
  46.3500        18
  46.4000        12
  46.4500        14
  46.5000        19
  46.5500        17
  46.6000        18
  46.6500        16
  46.7000         9
  46.7500        19
  46.8000        14
  46.8500        11
  46.9000        16
  46.9500        16
  47.0000        19
  47.0500        23
  47.1000        20
  47.1500        16
  47.2000        15
  47.2500        22
  47.3000        15
  47.3500        17
  47.4000        17
  47.4500        14
  47.5000        19
  47.5500        15
  47.6000        13
  47.6500        23
  47.7000        21
  47.7500         8
  47.8000        11
  47.8500        15
  47.9000        21
  47.9500         8
  48.0000        19
  48.0500        22
  48.1000        19
  48.1500        20
  48.2000        12
  48.2500        17
  48.3000        11
  48.3500        20
  48.4000        21
  48.4500        14
  48.5000        19
  48.5500        21
  48.6000        27
  48.6500        22
  48.7000        11
  48.7500        29
  48.8000        28
  48.8500        20
  48.9000        32
  48.9500        25
  49.0000        29
  49.0500        32
  49.1000        25
  49.1500        28
  49.2000        29
  49.2500        29
  49.3000        29
  49.3500        27
  49.4000        34
  49.4500        34
  49.5000        39
  49.5500        37
  49.6000        29
  49.6500        51
  49.7000        60
  49.7500        52
  49.8000        43
  49.8500        88
  49.9000        77
  49.9500        91
  50.0000       110
  50.0500       135
  50.1000       144
  50.1500       224
  50.2000       288
  50.2500       437
  50.3000       541
  50.3500       726
  50.4000       815
  50.4500       894
  50.5000       934
  50.5500       868
  50.6000       789
  50.6500       585
  50.7000       455
  50.7500       367
  50.8000       273
  50.8500       202
  50.9000       151
  50.9500       105
  51.0000        91
  51.0500        80
  51.1000        60
  51.1500        73
  51.2000        45
  51.2500        45
  51.3000        38
  51.3500        38
  51.4000        30
  51.4500        29
  51.5000        25
  51.5500        25
  51.6000        18
  51.6500        29
  51.7000        22
  51.7500        21
  51.8000        17
  51.8500        19
  51.9000        19
  51.9500        25
  52.0000        20
  52.0500        22
  52.1000        17
  52.1500        13
  52.2000        25
  52.2500        19
  52.3000        24
  52.3500        17
  52.4000        10
  52.4500        16
  52.5000        18
  52.5500        14
  52.6000        15
  52.6500        12
  52.7000        16
  52.7500        13
  52.8000         8
  52.8500        13
  52.9000        21
  52.9500        14
  53.0000        18
  53.0500        14
  53.1000        11
  53.1500        15
  53.2000        14
  53.2500        16
  53.3000         8
  53.3500         9
  53.4000        16
  53.4500        19
  53.5000        17
  53.5500        15
  53.6000        17
  53.6500         8
  53.7000        10
  53.7500        17
  53.8000        17
  53.8500        17
  53.9000        16
  53.9500        19
  54.0000        24
  54.0500         7
  54.1000        13
  54.1500        21
  54.2000         8
  54.2500        14
  54.3000         9
  54.3500        12
  54.4000        14
  54.4500        11
  54.5000        16
  54.5500        10
  54.6000        15
  54.6500        15
  54.7000         9
  54.7500        11
  54.8000        14
  54.8500         9
  54.9000        13
  54.9500         7
  55.0000        12
  55.0500        12
  55.1000        15
  55.1500        12
  55.2000        16
  55.2500        11
  55.3000        13
  55.3500        21
  55.4000        11
  55.4500        13
  55.5000         8
  55.5500        18
  55.6000        11
  55.6500        13
  55.7000         3
  55.7500        16
  55.8000        16
  55.8500        10
  55.9000        12
  55.9500        11
  56.0000        17
  56.0500        17
  56.1000        16
  56.1500        14
  56.2000         9
  56.2500        11
  56.3000         9
  56.3500        13
  56.4000        15
  56.4500        12
  56.5000         5
  56.5500        17
  56.6000        11
  56.6500         9
  56.7000        11
  56.7500        10
  56.8000        11
  56.8500        18
  56.9000         3
  56.9500        12
  57.0000        10
  57.0500        11
  57.1000         5
  57.1500        20
  57.2000        11
  57.2500         9
  57.3000        14
  57.3500        11
  57.4000        12
  57.4500        10
  57.5000        15
  57.5500        10
  57.6000        15
  57.6500        11
  57.7000        13
  57.7500        12
  57.8000        15
  57.8500        11
  57.9000        11
  57.9500         6
  58.0000        10
  58.0500        13
  58.1000        11
  58.1500        17
  58.2000        13
  58.2500        11
  58.3000         8
  58.3500        15
  58.4000        16
  58.4500        15
  58.5000        15
  58.5500        17
  58.6000         3
  58.6500        17
  58.7000        17
  58.7500         7
  58.8000        14
  58.8500         8
  58.9000        14
  58.9500        13
  59.0000        15
  59.0500        18
  59.1000        14
  59.1500         8
  59.2000        10
  59.2500        10
  59.3000        14
  59.3500        13
  59.4000         9
  59.4500        16
  59.5000        13
  59.5500        14
  59.6000        11
  59.6500        16
  59.7000        13
  59.7500        11
  59.8000        16
  59.8500        17
  59.9000        11
  59.9500        19
  60.0000        10
  60.0500        15
  60.1000        11
  60.1500         6
  60.2000        12
  60.2500         9
  60.3000         9
  60.3500        14
  60.4000        14
  60.4500        11
  60.5000        14
  60.5500        16
  60.6000        15
  60.6500        13
  60.7000        19
  60.7500        23
  60.8000        14
  60.8500        21
  60.9000        16
  60.9500        17
  61.0000         8
  61.0500        15
  61.1000        14
  61.1500        16
  61.2000        17
  61.2500        18
  61.3000        15
  61.3500        17
  61.4000        13
  61.4500        17
  61.5000        18
  61.5500        17
  61.6000        15
  61.6500        21
  61.7000        15
  61.7500        10
  61.8000        12
  61.8500        20
  61.9000        15
  61.9500        10
  62.0000         8
  62.0500        13
  62.1000        10
  62.1500        18
  62.2000         4
  62.2500        13
  62.3000        14
  62.3500        18
  62.4000        16
  62.4500        11
  62.5000        14
  62.5500         9
  62.6000         7
  62.6500         6
  62.7000         6
  62.7500         5
  62.8000        15
  62.8500         7
  62.9000        11
  62.9500        23
  63.0000         8
  63.0500        16
  63.1000        13
  63.1500        14
  63.2000         8
  63.2500        18
  63.3000        18
  63.3500        11
  63.4000        12
  63.4500        11
  63.5000         9
  63.5500        14
  63.6000        13
  63.6500        14
  63.7000        10
  63.7500        16
  63.8000         9
  63.8500        15
  63.9000        18
  63.9500         8
  64.0000        10
  64.0500         9
  64.1000        10
  64.1500        10
  64.2000         9
  64.2500         9
  64.3000        17
  64.3500         9
  64.4000        14
  64.4500        19
  64.5000         7
  64.5500        12
  64.6000         9
  64.6500        17
  64.7000         9
  64.7500         9
  64.8000         9
  64.8500         7
  64.9000        11
  64.9500        10
  65.0000        10
  65.0500        13
  65.1000        14
  65.1500         7
  65.2000        10
  65.2500        18
  65.3000        16
  65.3500         6
  65.4000        13
  65.4500        18
  65.5000        10
  65.5500        23
  65.6000        19
  65.6500         9
  65.7000        19
  65.7500        12
  65.8000        19
  65.8500         9
  65.9000        12
  65.9500         7
  66.0000        14
  66.0500        12
  66.1000        16
  66.1500        19
  66.2000        13
  66.2500        14
  66.3000        12
  66.3500         7
  66.4000        19
  66.4500        14
  66.5000        18
  66.5500        16
  66.6000        12
  66.6500        20
  66.7000        15
  66.7500         8
  66.8000        16
  66.8500        17
  66.9000         7
  66.9500        16
  67.0000         8
  67.0500        20
  67.1000        15
  67.1500        12
  67.2000        10
  67.2500        11
  67.3000        13
  67.3500        11
  67.4000        17
  67.4500        14
  67.5000        15
  67.5500        14
  67.6000        11
  67.6500        13
  67.7000        19
  67.7500        13
  67.8000        11
  67.8500        10
  67.9000         8
  67.9500        14
  68.0000        17
  68.0500        13
  68.1000        12
  68.1500        14
  68.2000         9
  68.2500         7
  68.3000        10
  68.3500         9
  68.4000        15
  68.4500        15
  68.5000        12
  68.5500        14
  68.6000         9
  68.6500        10
  68.7000        12
  68.7500        17
  68.8000        11
  68.8500        13
  68.9000        14
  68.9500         5
  69.0000        15
  69.0500        12
  69.1000        13
  69.1500        16
  69.2000        15
  69.2500        19
  69.3000        12
  69.3500        15
  69.4000        15
  69.4500        12
  69.5000         9
  69.5500        15
  69.6000         9
  69.6500        13
  69.7000        21
  69.7500        15
  69.8000         7
  69.8500        19
  69.9000        16
  69.9500        15
  70.0000        15
  70.0500        11
  70.1000         8
  70.1500        18
  70.2000        13
  70.2500        13
  70.3000        19
  70.3500        16
  70.4000        17
  70.4500        13
  70.5000        15
  70.5500        15
  70.6000        14
  70.6500        14
  70.7000         9
  70.7500         9
  70.8000        17
  70.8500        11
  70.9000        18
  70.9500        20
  71.0000        15
  71.0500        13
  71.1000        16
  71.1500        18
  71.2000        12
  71.2500        18
  71.3000        16
  71.3500        15
  71.4000        17
  71.4500        12
  71.5000        21
  71.5500        14
  71.6000        15
  71.6500        16
  71.7000        11
  71.7500        12
  71.8000        15
  71.8500        26
  71.9000        16
  71.9500        18
  72.0000        17
  72.0500        17
  72.1000        19
  72.1500        18
  72.2000        16
  72.2500        13
  72.3000        15
  72.3500        22
  72.4000        26
  72.4500        24
  72.5000        20
  72.5500        24
  72.6000        16
  72.6500        18
  72.7000        18
  72.7500        27
  72.8000        24
  72.8500        17
  72.9000        16
  72.9500        18
  73.0000        28
  73.0500        19
  73.1000        20
  73.1500        27
  73.2000        19
  73.2500        30
  73.3000        24
  73.3500        25
  73.4000        22
  73.4500        29
  73.5000        36
  73.5500        39
  73.6000        36
  73.6500        67
  73.7000        65
  73.7500        84
  73.8000       106
  73.8500       119
  73.9000       149
  73.9500       207
  74.0000       258
  74.0500       328
  74.1000       348
  74.1500       402
  74.2000       379
  74.2500       366
  74.3000       361
  74.3500       278
  74.4000       262
  74.4500       181
  74.5000       173
  74.5500       133
  74.6000        99
  74.6500        79
  74.7000        69
  74.7500        52
  74.8000        61
  74.8500        52
  74.9000        30
  74.9500        35
  75.0000        26
  75.0500        28
  75.1000        21
  75.1500        28
  75.2000        28
  75.2500        29
  75.3000        29
  75.3500        20
  75.4000        23
  75.4500        25
  75.5000        14
  75.5500        20
  75.6000        18
  75.6500        13
  75.7000        18
  75.7500        13
  75.8000        17
  75.8500        24
  75.9000        18
  75.9500         9
  76.0000        17
  76.0500        21
  76.1000        18
  76.1500        14
  76.2000        13
  76.2500        14
  76.3000        12
  76.3500        14
  76.4000        19
  76.4500        16
  76.5000        17
  76.5500         9
  76.6000        14
  76.6500        10
  76.7000        16
  76.7500        18
  76.8000        14
  76.8500        17
  76.9000        18
  76.9500        11
  77.0000        15
  77.0500        20
  77.1000        15
  77.1500        15
  77.2000        16
  77.2500        19
  77.3000        10
  77.3500        15
  77.4000         9
  77.4500        14
  77.5000        15
  77.5500        13
  77.6000        10
  77.6500        11
  77.7000        11
  77.7500        16
  77.8000        13
  77.8500        20
  77.9000         8
  77.9500        12
  78.0000        13
  78.0500        11
  78.1000        10
  78.1500         9
  78.2000        17
  78.2500        21
  78.3000        14
  78.3500        17
  78.4000        13
  78.4500        13
  78.5000        13
  78.5500         9
  78.6000        14
  78.6500        10
  78.7000        17
  78.7500         9
  78.8000        17
  78.8500         9
  78.9000         8
  78.9500        16
  79.0000         9
  79.0500        13
  79.1000        12
  79.1500        16
  79.2000        10
  79.2500        13
  79.3000        13
  79.3500         6
  79.4000        22
  79.4500        17
  79.5000        11
  79.5500        13
  79.6000        17
  79.6500        12
  79.7000        16
  79.7500        11
  79.8000        17
  79.8500        15
  79.9000        18
  79.9500        12
  80.0000        10
  80.0500        15
  80.1000        14
  80.1500        11
  80.2000        14
  80.2500        19
  80.3000        13
  80.3500        13
  80.4000        15
  80.4500        12
  80.5000        14
  80.5500         9
  80.6000        15
  80.6500        14
  80.7000         6
  80.7500        14
  80.8000        12
  80.8500        10
  80.9000        16
  80.9500         7
  81.0000        12
  81.0500         8
  81.1000        12
  81.1500        10
  81.2000        13
  81.2500        11
  81.3000        17
  81.3500        15
  81.4000        13
  81.4500        12
  81.5000        11
  81.5500        14
  81.6000        14
  81.6500        12
  81.7000        14
  81.7500        16
  81.8000         9
  81.8500        24
  81.9000        12
  81.9500        11
  82.0000        10
  82.0500        19
  82.1000        13
  82.1500        17
  82.2000        13
  82.2500        17
  82.3000        14
  82.3500         8
  82.4000        14
  82.4500         8
  82.5000        10
  82.5500         7
  82.6000        11
  82.6500        13
  82.7000        14
  82.7500        10
  82.8000        17
  82.8500        12
  82.9000         6
  82.9500        17
  83.0000        11
  83.0500        13
  83.1000         9
  83.1500        12
  83.2000        14
  83.2500        11
  83.3000        17
  83.3500        18
  83.4000        20
  83.4500        13
  83.5000        16
  83.5500        21
  83.6000        12
  83.6500        10
  83.7000        10
  83.7500        14
  83.8000        20
  83.8500         9
  83.9000        15
  83.9500         9
  84.0000         5
  84.0500         9
  84.1000        12
  84.1500        13
  84.2000        18
  84.2500        10
  84.3000        14
  84.3500        16
  84.4000         8
  84.4500        20
  84.5000        10
  84.5500        18
  84.6000         8
  84.6500        10
  84.7000        14
  84.7500        12
  84.8000        13
  84.8500        12
  84.9000        17
  84.9500        17
  85.0000         7
  85.0500        20
  85.1000        10
  85.1500        20
  85.2000         8
  85.2500        12
  85.3000        17
  85.3500        12
  85.4000        11
  85.4500        14
  85.5000        14
  85.5500        21
  85.6000        10
  85.6500        14
  85.7000        13
  85.7500        11
  85.8000        13
  85.8500        10
  85.9000        17
  85.9500        17
  86.0000        15
  86.0500        21
  86.1000         9
  86.1500        16
  86.2000        12
  86.2500        17
  86.3000        17
  86.3500        24
  86.4000        12
  86.4500        15
  86.5000        14
  86.5500        15
  86.6000        12
  86.6500        15
  86.7000        14
  86.7500        16
  86.8000        13
  86.8500        24
  86.9000         9
  86.9500        10
  87.0000        16
  87.0500        14
  87.1000        15
  87.1500        13
  87.2000        18
  87.2500        21
  87.3000        17
  87.3500        16
  87.4000        19
  87.4500        25
  87.5000        19
  87.5500        19
  87.6000        19
  87.6500        19
  87.7000        10
  87.7500        17
  87.8000        19
  87.8500        26
  87.9000        18
  87.9500        13
  88.0000        13
  88.0500        12
  88.1000        20
  88.1500        10
  88.2000        11
  88.2500        19
  88.3000        22
  88.3500        20
  88.4000        13
  88.4500        11
  88.5000        12
  88.5500        15
  88.6000        21
  88.6500        26
  88.7000        26
  88.7500        27
  88.8000        21
  88.8500        16
  88.9000        31
  88.9500        32
  89.0000        26
  89.0500        22
  89.1000        29
  89.1500        41
  89.2000        48
  89.2500        39
  89.3000        59
  89.3500        63
  89.4000        73
  89.4500        71
  89.5000       105
  89.5500       120
  89.6000       163
  89.6500       161
  89.7000       189
  89.7500       213
  89.8000       231
  89.8500       277
  89.9000       300
  89.9500       324
  90.0000       300
  90.0500       295
  90.1000       312
  90.1500       279
  90.2000       259
  90.2500       218
  90.3000       204
  90.3500       196
  90.4000       140
  90.4500       132
  90.5000       108
  90.5500        75
  90.6000        84
  90.6500        57
  90.7000        66
  90.7500        54
  90.8000        42
  90.8500        64
  90.9000        27
  90.9500        30
  91.0000        27
  91.0500        27
  91.1000        31
  91.1500        29
  91.2000        25
  91.2500        25
  91.3000        31
  91.3500        26
  91.4000        23
  91.4500        21
  91.5000        31
  91.5500        22
  91.6000        17
  91.6500        13
  91.7000        13
  91.7500        18
  91.8000        23
  91.8500        23
  91.9000        23
  91.9500        13
  92.0000        12
  92.0500        24
  92.1000        14
  92.1500        13
  92.2000         9
  92.2500        10
  92.3000        18
  92.3500        17
  92.4000        10
  92.4500        16
  92.5000        10
  92.5500        13
  92.6000        18
  92.6500        18
  92.7000        16
  92.7500        14
  92.8000        16
  92.8500        12
  92.9000        12
  92.9500        12
  93.0000        20
  93.0500        11
  93.1000        19
  93.1500         9
  93.2000        15
  93.2500        19
  93.3000        17
  93.3500        15
  93.4000         9
  93.4500        15
  93.5000        19
  93.5500        16
  93.6000        19
  93.6500        11
  93.7000        16
  93.7500        23
  93.8000        16
  93.8500        13
  93.9000        13
  93.9500        21
  94.0000        25
  94.0500        23
  94.1000        19
  94.1500        23
  94.2000        21
  94.2500        18
  94.3000         8
  94.3500        23
  94.4000        15
  94.4500        20
  94.5000        24
  94.5500        13
  94.6000        21
  94.6500        28
  94.7000        32
  94.7500        37
  94.8000        37
  94.8500        36
  94.9000        38
  94.9500        59
  95.0000        68
  95.0500        91
  95.1000        89
  95.1500       121
  95.2000       124
  95.2500       122
  95.3000       114
  95.3500        79
  95.4000        97
  95.4500       104
  95.5000        79
  95.5500        56
  95.6000        71
  95.6500        50
  95.7000        41
  95.7500        32
  95.8000        35
  95.8500        26
  95.9000        22
  95.9500        27
  96.0000        16
  96.0500        18
  96.1000        17
  96.1500        17
  96.2000        17
  96.2500        18
  96.3000        15
  96.3500        14
  96.4000        14
  96.4500        10
  96.5000        20
  96.5500         8
  96.6000        12
  96.6500        15
  96.7000        11
  96.7500        11
  96.8000        13
  96.8500        10
  96.9000        10
  96.9500         8
  97.0000        16
  97.0500        12
  97.1000        12
  97.1500        15
  97.2000        17
  97.2500        15
  97.3000        16
  97.3500        10
  97.4000        13
  97.4500        15
  97.5000         9
  97.5500        11
  97.6000        12
  97.6500        12
  97.7000        14
  97.7500        14
  97.8000        15
  97.8500        14
  97.9000        12
  97.9500        16
  98.0000         9
  98.0500        10
  98.1000        11
  98.1500        13
  98.2000         9
  98.2500        10
  98.3000         6
  98.3500         7
  98.4000        13
  98.4500         9
  98.5000        18
  98.5500        12
  98.6000        15
  98.6500        11
  98.7000         8
  98.7500        15
  98.8000        14
  98.8500        13
  98.9000        12
  98.9500        10
  99.0000        15
  99.0500        12
  99.1000        10
  99.1500        13
  99.2000        15
  99.2500        18
  99.3000        14
  99.3500         9
  99.4000        12
  99.4500        11
  99.5000        12
  99.5500        20
  99.6000         5
  99.6500        16
  99.7000        12
  99.7500        18
  99.8000        15
  99.8500        14
  99.9000        21
  99.9500        13
 100.0000         9
 100.0500        10
 100.1000        12
 100.1500        21
 100.2000        15
 100.2500         8
 100.3000        19
 100.3500         9
 100.4000        10
 100.4500        11
 100.5000        19
 100.5500        14
 100.6000        13
 100.6500        12
 100.7000        10
 100.7500        10
 100.8000        11
 100.8500        16
 100.9000        15
 100.9500        11
 101.0000        10
 101.0500         9
 101.1000        14
 101.1500        12
 101.2000        16
 101.2500        17
 101.3000        16
 101.3500        15
 101.4000        21
 101.4500        20
 101.5000        12
 101.5500        18
 101.6000        19
 101.6500        12
 101.7000        11
 101.7500        18
 101.8000        13
 101.8500        12
 101.9000        12
 101.9500        13
 102.0000        12
 102.0500        11
 102.1000        10
 102.1500        14
 102.2000         8
 102.2500         7
 102.3000         9
 102.3500        12
 102.4000         7
 102.4500        13
 102.5000        12
 102.5500        11
 102.6000        15
 102.6500        12
 102.7000        10
 102.7500        13
 102.8000        17
 102.8500        14
 102.9000        15
 102.9500        13
 103.0000         5
 103.0500        12
 103.1000        15
 103.1500        14
 103.2000         9
 103.2500        12
 103.3000         5
 103.3500        16
 103.4000         7
 103.4500        11
 103.5000        10
 103.5500        12
 103.6000        15
 103.6500        13
 103.7000        22
 103.7500         7
 103.8000        12
 103.8500        23
 103.9000         5
 103.9500        13
 104.0000        11
 104.0500        20
 104.1000        11
 104.1500        12
 104.2000         8
 104.2500         5
 104.3000         7
 104.3500        17
 104.4000        10
 104.4500        14
 104.5000        11
 104.5500        12
 104.6000         8
 104.6500         9
 104.7000        18
 104.7500        13
 104.8000        16
 104.8500         9
 104.9000        12
 104.9500         7
 105.0000        10
 105.0500        19
 105.1000        12
 105.1500         6
 105.2000        12
 105.2500        14
 105.3000         7
 105.3500        16
 105.4000        11
 105.4500        11
 105.5000        11
 105.5500        14
 105.6000        12
 105.6500        14
 105.7000        14
 105.7500         9
 105.8000        11
 105.8500        15
 105.9000        12
 105.9500         8
 106.0000        19
 106.0500        14
 106.1000        14
 106.1500        19
 106.2000        11
 106.2500        17
 106.3000         9
 106.3500         9
 106.4000        12
 106.4500        12
 106.5000        11
 106.5500        16
 106.6000        11
 106.6500        18
 106.7000        12
 106.7500        22
 106.8000        11
 106.8500        14
 106.9000        14
 106.9500        15
 107.0000        11
 107.0500        11
 107.1000        12
 107.1500        14
 107.2000        16
 107.2500        12
 107.3000        12
 107.3500        17
 107.4000        10
 107.4500        11
 107.5000        23
 107.5500         9
 107.6000        13
 107.6500        13
 107.7000        11
 107.7500        14
 107.8000        11
 107.8500        13
 107.9000         7
 107.9500         8
 108.0000        12
 108.0500        10
 108.1000        10
 108.1500        18
 108.2000        13
 108.2500        12
 108.3000         6
 108.3500         8
 108.4000        10
 108.4500        17
 108.5000         8
 108.5500         8
 108.6000        10
 108.6500         8
 108.7000        13
 108.7500        12
 108.8000         9
 108.8500        10
 108.9000        12
 108.9500         8
 109.0000        12
 109.0500         8
 109.1000        14
 109.1500        10
 109.2000        15
 109.2500         7
 109.3000        18
 109.3500         7
 109.4000        14
 109.4500        11
 109.5000         9
 109.5500         9
 109.6000        10
 109.6500         9
 109.7000        13
 109.7500        13
 109.8000        14
 109.8500        11
 109.9000        12
 109.9500        19
 110.0000        10
