  10.0000        36
  10.0500        28
  10.1000        21
  10.1500        35
  10.2000        42
  10.2500        29
  10.3000        23
  10.3500        22
  10.4000        31
  10.4500        32
  10.5000        31
  10.5500        32
  10.6000        29
  10.6500        39
  10.7000        34
  10.7500        36
  10.8000        40
  10.8500        36
  10.9000        35
  10.9500        40
  11.0000        39
  11.0500        35
  11.1000        31
  11.1500        24
  11.2000        36
  11.2500        40
  11.3000        32
  11.3500        37
  11.4000        36
  11.4500        33
  11.5000        29
  11.5500        32
  11.6000        35
  11.6500        29
  11.7000        39
  11.7500        34
  11.8000        37
  11.8500        39
  11.9000        36
  11.9500        42
  12.0000        24
  12.0500        33
  12.1000        32
  12.1500        33
  12.2000        32
  12.2500        26
  12.3000        27
  12.3500        26
  12.4000        33
  12.4500        36
  12.5000        34
  12.5500        37
  12.6000        37
  12.6500        35
  12.7000        31
  12.7500        26
  12.8000        39
  12.8500        27
  12.9000        22
  12.9500        37
  13.0000        40
  13.0500        29
  13.1000        41
  13.1500        30
  13.2000        25
  13.2500        32
  13.3000        29
  13.3500        38
  13.4000        24
  13.4500        34
  13.5000        33
  13.5500        30
  13.6000        36
  13.6500        34
  13.7000        39
  13.7500        26
  13.8000        28
  13.8500        28
  13.9000        32
  13.9500        32
  14.0000        31
  14.0500        34
  14.1000        27
  14.1500        33
  14.2000        40
  14.2500        30
  14.3000        33
  14.3500        29
  14.4000        32
  14.4500        26
  14.5000        26
  14.5500        30
  14.6000        27
  14.6500        29
  14.7000        37
  14.7500        34
  14.8000        34
  14.8500        36
  14.9000        47
  14.9500        34
  15.0000        32
  15.0500        31
  15.1000        35
  15.1500        26
  15.2000        35
  15.2500        30
  15.3000        28
  15.3500        28
  15.4000        35
  15.4500        36
  15.5000        36
  15.5500        36
  15.6000        32
  15.6500        23
  15.7000        42
  15.7500        28
  15.8000        40
  15.8500        27
  15.9000        27
  15.9500        38
  16.0000        32
  16.0500        32
  16.1000        24
  16.1500        34
  16.2000        37
  16.2500        26
  16.3000        27
  16.3500        28
  16.4000        27
  16.4500        33
  16.5000        25
  16.5500        38
  16.6000        25
  16.6500        41
  16.7000        38
  16.7500        23
  16.8000        23
  16.8500        24
  16.9000        34
  16.9500        32
  17.0000        30
  17.0500        27
  17.1000        30
  17.1500        44
  17.2000        36
  17.2500        35
  17.3000        31
  17.3500        30
  17.4000        37
  17.4500        37
  17.5000        26
  17.5500        45
  17.6000        34
  17.6500        34
  17.7000        28
  17.7500        34
  17.8000        26
  17.8500        33
  17.9000        26
  17.9500        20
  18.0000        34
  18.0500        33
  18.1000        34
  18.1500        40
  18.2000        26
  18.2500        28
  18.3000        29
  18.3500        27
  18.4000        33
  18.4500        29
  18.5000        31
  18.5500        20
  18.6000        26
  18.6500        33
  18.7000        30
  18.7500        32
  18.8000        25
  18.8500        18
  18.9000        22
  18.9500        25
  19.0000        27
  19.0500        42
  19.1000        24
  19.1500        30
  19.2000        32
  19.2500        36
  19.3000        32
  19.3500        37
  19.4000        33
  19.4500        29
  19.5000        32
  19.5500        40
  19.6000        39
  19.6500        25
  19.7000        37
  19.7500        32
  19.8000        33
  19.8500        40
  19.9000        33
  19.9500        28
  20.0000        25
  20.0500        33
  20.1000        31
  20.1500        25
  20.2000        39
  20.2500        21
  20.3000        34
  20.3500        21
  20.4000        39
  20.4500        32
  20.5000        26
  20.5500        33
  20.6000        25
  20.6500        20
  20.7000        26
  20.7500        28
  20.8000        35
  20.8500        38
  20.9000        25
  20.9500        25
  21.0000        33
  21.0500        33
  21.1000        35
  21.1500        33
  21.2000        26
  21.2500        31
  21.3000        37
  21.3500        33
  21.4000        23
  21.4500        30
  21.5000        35
  21.5500        34
  21.6000        31
  21.6500        39
  21.7000        36
  21.7500        33
  21.8000        35
  21.8500        25
  21.9000        30
  21.9500        26
  22.0000        44
  22.0500        31
  22.1000        37
  22.1500        27
  22.2000        29
  22.2500        28
  22.3000        26
  22.3500        37
  22.4000        32
  22.4500        35
  22.5000        27
  22.5500        28
  22.6000        33
  22.6500        35
  22.7000        27
  22.7500        28
  22.8000        29
  22.8500        28
  22.9000        25
  22.9500        35
  23.0000        29
  23.0500        23
  23.1000        38
  23.1500        31
  23.2000        27
  23.2500        44
  23.3000        29
  23.3500        24
  23.4000        33
  23.4500        26
  23.5000        34
  23.5500        33
  23.6000        37
  23.6500        27
  23.7000        21
  23.7500        27
  23.8000        24
  23.8500        20
  23.9000        25
  23.9500        27
  24.0000        27
  24.0500        26
  24.1000        44
  24.1500        36
  24.2000        21
  24.2500        29
  24.3000        20
  24.3500        27
  24.4000        18
  24.4500        38
  24.5000        22
  24.5500        32
  24.6000        26
  24.6500        29
  24.7000        26
  24.7500        27
  24.8000        33
  24.8500        25
  24.9000        30
  24.9500        25
  25.0000        24
  25.0500        36
  25.1000        24
  25.1500        27
  25.2000        30
  25.2500        28
  25.3000        33
  25.3500        28
  25.4000        27
  25.4500        25
  25.5000        26
  25.5500        32
  25.6000        30
  25.6500        32
  25.7000        17
  25.7500        25
  25.8000        22
  25.8500        33
  25.9000        33
  25.9500        29
  26.0000        27
  26.0500        24
  26.1000        38
  26.1500        26
  26.2000        33
  26.2500        37
  26.3000        17
  26.3500        22
  26.4000        32
  26.4500        24
  26.5000        35
  26.5500        26
  26.6000        32
  26.6500        22
  26.7000        25
  26.7500        31
  26.8000        34
  26.8500        26
  26.9000        32
  26.9500        26
  27.0000        14
  27.0500        31
  27.1000        24
  27.1500        27
  27.2000        33
  27.2500        24
  27.3000        27
  27.3500        33
  27.4000        46
  27.4500        34
  27.5000        24
  27.5500        38
  27.6000        29
  27.6500        26
  27.7000        28
  27.7500        27
  27.8000        33
  27.8500        35
  27.9000        30
  27.9500        27
  28.0000        22
  28.0500        24
  28.1000        28
  28.1500        26
  28.2000        23
  28.2500        31
  28.3000        26
  28.3500        26
  28.4000        28
  28.4500        32
  28.5000        30
  28.5500        32
  28.6000        28
  28.6500        34
  28.7000        29
  28.7500        28
  28.8000        20
  28.8500        30
  28.9000        34
  28.9500        29
  29.0000        27
  29.0500        33
  29.1000        23
  29.1500        25
  29.2000        25
  29.2500        32
  29.3000        25
  29.3500        31
  29.4000        32
  29.4500        28
  29.5000        29
  29.5500        23
  29.6000        16
  29.6500        35
  29.7000        24
  29.7500        29
  29.8000        28
  29.8500        33
  29.9000        15
  29.9500        31
  30.0000        22
  30.0500        40
  30.1000        23
  30.1500        35
  30.2000        22
  30.2500        21
  30.3000        24
  30.3500        23
  30.4000        26
  30.4500        26
  30.5000        26
  30.5500        34
  30.6000        30
  30.6500        32
  30.7000        37
  30.7500        37
  30.8000        30
  30.8500        24
  30.9000        29
  30.9500        24
  31.0000        27
  31.0500        27
  31.1000        20
  31.1500        18
  31.2000        29
  31.2500        33
  31.3000        32
  31.3500        33
  31.4000        25
  31.4500        20
  31.5000        26
  31.5500        20
  31.6000        23
  31.6500        33
  31.7000        26
  31.7500        32
  31.8000        29
  31.8500        25
  31.9000        24
  31.9500        31
  32.0000        36
  32.0500        29
  32.1000        24
  32.1500        21
  32.2000        28
  32.2500        34
  32.3000        23
  32.3500        23
  32.4000        32
  32.4500        19
  32.5000        30
  32.5500        27
  32.6000        29
  32.6500        28
  32.7000        28
  32.7500        35
  32.8000        26
  32.8500        26
  32.9000        28
  32.9500        20
  33.0000        29
  33.0500        38
  33.1000        39
  33.1500        27
  33.2000        28
  33.2500        28
  33.3000        27
  33.3500        35
  33.4000        36
  33.4500        28
  33.5000        33
  33.5500        36
  33.6000        24
  33.6500        29
  33.7000        27
  33.7500        30
  33.8000        38
  33.8500        28
  33.9000        34
  33.9500        38
  34.0000        28
  34.0500        36
  34.1000        33
  34.1500        30
  34.2000        27
  34.2500        27
  34.3000        31
  34.3500        25
  34.4000        22
  34.4500        32
  34.5000        22
  34.5500        28
  34.6000        32
  34.6500        28
  34.7000        35
  34.7500        26
  34.8000        22
  34.8500        24
  34.9000        36
  34.9500        30
  35.0000        30
  35.0500        26
  35.1000        18
  35.1500        26
  35.2000        29
  35.2500        30
  35.3000        32
  35.3500        30
  35.4000        30
  35.4500        26
  35.5000        22
  35.5500        25
  35.6000        26
  35.6500        32
  35.7000        24
  35.7500        24
  35.8000        35
  35.8500        28
  35.9000        38
  35.9500        32
  36.0000        29
  36.0500        25
  36.1000        22
  36.1500        26
  36.2000        19
  36.2500        34
  36.3000        35
  36.3500        32
  36.4000        33
  36.4500        31
  36.5000        27
  36.5500        26
  36.6000        33
  36.6500        32
  36.7000        36
  36.7500        32
  36.8000        29
  36.8500        30
  36.9000        40
  36.9500        37
  37.0000        24
  37.0500        32
  37.1000        31
  37.1500        27
  37.2000        25
  37.2500        38
  37.3000        17
  37.3500        28
  37.4000        34
  37.4500        39
  37.5000        27
  37.5500        22
  37.6000        36
  37.6500        24
  37.7000        31
  37.7500        25
  37.8000        32
  37.8500        43
  37.9000        31
  37.9500        29
  38.0000        40
  38.0500        26
  38.1000        37
  38.1500        33
  38.2000        26
  38.2500        32
  38.3000        25
  38.3500        29
  38.4000        33
  38.4500        31
  38.5000        38
  38.5500        27
  38.6000        29
  38.6500        27
  38.7000        29
  38.7500        32
  38.8000        41
  38.8500        26
  38.9000        31
  38.9500        29
  39.0000        29
  39.0500        28
  39.1000        23
  39.1500        26
  39.2000        22
  39.2500        29
  39.3000        30
  39.3500        25
  39.4000        28
  39.4500        31
  39.5000        35
  39.5500        28
  39.6000        32
  39.6500        28
  39.7000        35
  39.7500        28
  39.8000        31
  39.8500        20
  39.9000        31
  39.9500        23
  40.0000        31
  40.0500        33
  40.1000        28
  40.1500        29
  40.2000        33
  40.2500        31
  40.3000        33
  40.3500        16
  40.4000        25
  40.4500        26
  40.5000        36
  40.5500        30
  40.6000        25
  40.6500        25
  40.7000        31
  40.7500        29
  40.8000        39
  40.8500        32
  40.9000        35
  40.9500        34
  41.0000        30
  41.0500        36
  41.1000        35
  41.1500        25
  41.2000        32
  41.2500        30
  41.3000        29
  41.3500        32
  41.4000        21
  41.4500        17
  41.5000        31
  41.5500        31
  41.6000        23
  41.6500        40
  41.7000        31
  41.7500        34
  41.8000        31
  41.8500        36
  41.9000        45
  41.9500        30
  42.0000        28
  42.0500        30
  42.1000        35
  42.1500        30
  42.2000        42
  42.2500        25
  42.3000        32
  42.3500        25
  42.4000        36
  42.4500        36
  42.5000        35
  42.5500        36
  42.6000        25
  42.6500        34
  42.7000        39
  42.7500        44
  42.8000        36
  42.8500        39
  42.9000        44
  42.9500        39
  43.0000        46
  43.0500        35
  43.1000        47
  43.1500        65
  43.2000        61
  43.2500        47
  43.3000        55
  43.3500        58
  43.4000        61
  43.4500        40
  43.5000        59
  43.5500        64
  43.6000        57
  43.6500        54
  43.7000        60
  43.7500        58
  43.8000        77
  43.8500        85
  43.9000        77
  43.9500        99
  44.0000       108
  44.0500       147
  44.1000       182
  44.1500       253
  44.2000       428
  44.2500       665
  44.3000      1069
  44.3500      1844
  44.4000      2424
  44.4500      2963
  44.5000      2904
  44.5500      2455
  44.6000      1899
  44.6500      1360
  44.7000       761
  44.7500       485
  44.8000       309
  44.8500       191
  44.9000       144
  44.9500       121
  45.0000       117
  45.0500        88
  45.1000        75
  45.1500        71
  45.2000        63
  45.2500        56
  45.3000        50
  45.3500        60
  45.4000        50
  45.4500        38
  45.5000        41
  45.5500        38
  45.6000        39
  45.6500        44
  45.7000        48
  45.7500        57
  45.8000        39
  45.8500        31
  45.9000        44
  45.9500        51
  46.0000        45
  46.0500        37
  46.1000        31
  46.1500        33
  46.2000        43
  46.2500        35
  46.3000        44
  46.3500        29
  46.4000        30
  46.4500        36
  46.5000        41
  46.5500        28
  46.6000        25
  46.6500        34
  46.7000        42
  46.7500        35
  46.8000        29
  46.8500        28
  46.9000        26
  46.9500        42
  47.0000        31
  47.0500        41
  47.1000        28
  47.1500        32
  47.2000        36
  47.2500        35
  47.3000        34
  47.3500        34
  47.4000        31
  47.4500        28
  47.5000        32
  47.5500        28
  47.6000        33
  47.6500        30
  47.7000        31
  47.7500        21
  47.8000        37
  47.8500        33
  47.9000        31
  47.9500        43
  48.0000        37
  48.0500        43
  48.1000        26
  48.1500        33
  48.2000        33
  48.2500        26
  48.3000        35
  48.3500        17
  48.4000        23
  48.4500        28
  48.5000        31
  48.5500        34
  48.6000        41
  48.6500        34
  48.7000        31
  48.7500        27
  48.8000        30
  48.8500        35
  48.9000        30
  48.9500        29
  49.0000        21
  49.0500        28
  49.1000        27
  49.1500        35
  49.2000        38
  49.2500        33
  49.3000        29
  49.3500        29
  49.4000        25
  49.4500        33
  49.5000        40
  49.5500        31
  49.6000        35
  49.6500        34
  49.7000        36
  49.7500        24
  49.8000        39
  49.8500        24
  49.9000        28
  49.9500        35
  50.0000        34
  50.0500        39
  50.1000        38
  50.1500        30
  50.2000        27
  50.2500        34
  50.3000        30
  50.3500        49
  50.4000        41
  50.4500        41
  50.5000        41
  50.5500        42
  50.6000        46
  50.6500        40
  50.7000        45
  50.7500        37
  50.8000        47
  50.8500        42
  50.9000        43
  50.9500        40
  51.0000        45
  51.0500        48
  51.1000        71
  51.1500        80
  51.2000        63
  51.2500        93
  51.3000        96
  51.3500       103
  51.4000       125
  51.4500       158
  51.5000       192
  51.5500       302
  51.6000       385
  51.6500       547
  51.7000       721
  51.7500       923
  51.8000       950
  51.8500      1018
  51.9000       918
  51.9500       750
  52.0000       661
  52.0500       420
  52.1000       329
  52.1500       206
  52.2000       192
  52.2500       132
  52.3000        99
  52.3500        85
  52.4000        85
  52.4500        63
  52.5000        65
  52.5500        47
  52.6000        53
  52.6500        44
  52.7000        50
  52.7500        41
  52.8000        38
  52.8500        41
  52.9000        36
  52.9500        25
  53.0000        32
  53.0500        38
  53.1000        43
  53.1500        32
  53.2000        32
  53.2500        35
  53.3000        30
  53.3500        37
  53.4000        40
  53.4500        53
  53.5000        38
  53.5500        43
  53.6000        34
  53.6500        18
  53.7000        34
  53.7500        43
  53.8000        31
  53.8500        32
  53.9000        26
  53.9500        24
  54.0000        28
  54.0500        30
  54.1000        30
  54.1500        36
  54.2000        26
  54.2500        23
  54.3000        25
  54.3500        26
  54.4000        33
  54.4500        29
  54.5000        34
  54.5500        22
  54.6000        28
  54.6500        34
  54.7000        31
  54.7500        36
  54.8000        39
  54.8500        29
  54.9000        38
  54.9500        22
  55.0000        32
  55.0500        33
  55.1000        26
  55.1500        24
  55.2000        29
  55.2500        23
  55.3000        26
  55.3500        24
  55.4000        24
  55.4500        51
  55.5000        32
  55.5500        27
  55.6000        31
  55.6500        36
  55.7000        27
  55.7500        34
  55.8000        24
  55.8500        32
  55.9000        29
  55.9500        30
  56.0000        38
  56.0500        29
  56.1000        25
  56.1500        29
  56.2000        22
  56.2500        21
  56.3000        36
  56.3500        29
  56.4000        29
  56.4500        22
  56.5000        20
  56.5500        22
  56.6000        33
  56.6500        24
  56.7000        25
  56.7500        20
  56.8000        33
  56.8500        28
  56.9000        28
  56.9500        25
  57.0000        37
  57.0500        29
  57.1000        25
  57.1500        22
  57.2000        32
  57.2500        15
  57.3000        25
  57.3500        26
  57.4000        15
  57.4500        26
  57.5000        23
  57.5500        21
  57.6000        25
  57.6500        27
  57.7000        30
  57.7500        27
  57.8000        20
  57.8500        24
  57.9000        24
  57.9500        26
  58.0000        38
  58.0500        34
  58.1000        35
  58.1500        41
  58.2000        20
  58.2500        28
  58.3000        29
  58.3500        38
  58.4000        21
  58.4500        29
  58.5000        22
  58.5500        43
  58.6000        35
  58.6500        32
  58.7000        32
  58.7500        30
  58.8000        27
  58.8500        29
  58.9000        40
  58.9500        31
  59.0000        23
  59.0500        21
  59.1000        33
  59.1500        16
  59.2000        30
  59.2500        26
  59.3000        30
  59.3500        29
  59.4000        29
  59.4500        32
  59.5000        35
  59.5500        34
  59.6000        25
  59.6500        28
  59.7000        29
  59.7500        23
  59.8000        39
  59.8500        24
  59.9000        19
  59.9500        23
  60.0000        31
  60.0500        34
  60.1000        27
  60.1500        25
  60.2000        35
  60.2500        29
  60.3000        29
  60.3500        32
  60.4000        21
  60.4500        23
  60.5000        23
  60.5500        38
  60.6000        27
  60.6500        26
  60.7000        36
  60.7500        21
  60.8000        39
  60.8500        24
  60.9000        34
  60.9500        31
  61.0000        22
  61.0500        31
  61.1000        33
  61.1500        26
  61.2000        33
  61.2500        27
  61.3000        40
  61.3500        35
  61.4000        25
  61.4500        27
  61.5000        41
  61.5500        29
  61.6000        38
  61.6500        22
  61.7000        26
  61.7500        25
  61.8000        23
  61.8500        29
  61.9000        23
  61.9500        41
  62.0000        29
  62.0500        26
  62.1000        26
  62.1500        29
  62.2000        34
  62.2500        24
  62.3000        33
  62.3500        34
  62.4000        31
  62.4500        35
  62.5000        23
  62.5500        19
  62.6000        25
  62.6500        32
  62.7000        31
  62.7500        33
  62.8000        26
  62.8500        28
  62.9000        32
  62.9500        28
  63.0000        36
  63.0500        23
  63.1000        24
  63.1500        29
  63.2000        33
  63.2500        27
  63.3000        32
  63.3500        24
  63.4000        23
  63.4500        23
  63.5000        27
  63.5500        37
  63.6000        21
  63.6500        28
  63.7000        24
  63.7500        22
  63.8000        28
  63.8500        37
  63.9000        26
  63.9500        26
  64.0000        30
  64.0500        32
  64.1000        24
  64.1500        33
  64.2000        26
  64.2500        35
  64.3000        32
  64.3500        30
  64.4000        36
  64.4500        31
  64.5000        27
  64.5500        20
  64.6000        31
  64.6500        33
  64.7000        24
  64.7500        26
  64.8000        24
  64.8500        25
  64.9000        27
  64.9500        30
  65.0000        28
  65.0500        21
  65.1000        25
  65.1500        25
  65.2000        32
  65.2500        27
  65.3000        27
  65.3500        27
  65.4000        28
  65.4500        34
  65.5000        26
  65.5500        30
  65.6000        28
  65.6500        30
  65.7000        26
  65.7500        21
  65.8000        25
  65.8500        32
  65.9000        33
  65.9500        38
  66.0000        25
  66.0500        34
  66.1000        24
  66.1500        39
  66.2000        44
  66.2500        31
  66.3000        27
  66.3500        26
  66.4000        28
  66.4500        26
  66.5000        34
  66.5500        22
  66.6000        24
  66.6500        34
  66.7000        25
  66.7500        38
  66.8000        25
  66.8500        34
  66.9000        24
  66.9500        41
  67.0000        32
  67.0500        30
  67.1000        28
  67.1500        29
  67.2000        30
  67.2500        33
  67.3000        29
  67.3500        27
  67.4000        31
  67.4500        27
  67.5000        28
  67.5500        21
  67.6000        29
  67.6500        20
  67.7000        26
  67.7500        29
  67.8000        30
  67.8500        22
  67.9000        29
  67.9500        25
  68.0000        24
  68.0500        32
  68.1000        33
  68.1500        33
  68.2000        25
  68.2500        27
  68.3000        35
  68.3500        22
  68.4000        25
  68.4500        28
  68.5000        22
  68.5500        36
  68.6000        32
  68.6500        30
  68.7000        30
  68.7500        32
  68.8000        22
  68.8500        19
  68.9000        35
  68.9500        36
  69.0000        34
  69.0500        27
  69.1000        23
  69.1500        23
  69.2000        29
  69.2500        34
  69.3000        37
  69.3500        31
  69.4000        28
  69.4500        17
  69.5000        30
  69.5500        35
  69.6000        37
  69.6500        29
  69.7000        20
  69.7500        32
  69.8000        25
  69.8500        24
  69.9000        35
  69.9500        25
  70.0000        27
  70.0500        34
  70.1000        26
  70.1500        26
  70.2000        29
  70.2500        29
  70.3000        22
  70.3500        28
  70.4000        32
  70.4500        37
  70.5000        23
  70.5500        22
  70.6000        27
  70.6500        28
  70.7000        35
  70.7500        28
  70.8000        37
  70.8500        32
  70.9000        33
  70.9500        20
  71.0000        27
  71.0500        37
  71.1000        25
  71.1500        24
  71.2000        29
  71.2500        20
  71.3000        26
  71.3500        22
  71.4000        30
  71.4500        28
  71.5000        19
  71.5500        33
  71.6000        22
  71.6500        25
  71.7000        30
  71.7500        43
  71.8000        31
  71.8500        32
  71.9000        39
  71.9500        34
  72.0000        38
  72.0500        21
  72.1000        23
  72.1500        19
  72.2000        38
  72.2500        27
  72.3000        30
  72.3500        16
  72.4000        25
  72.4500        37
  72.5000        31
  72.5500        30
  72.6000        27
  72.6500        16
  72.7000        26
  72.7500        24
  72.8000        36
  72.8500        18
  72.9000        43
  72.9500        40
  73.0000        23
  73.0500        33
  73.1000        36
  73.1500        33
  73.2000        29
  73.2500        32
  73.3000        26
  73.3500        37
  73.4000        34
  73.4500        28
  73.5000        43
  73.5500        40
  73.6000        36
  73.6500        33
  73.7000        30
  73.7500        28
  73.8000        38
  73.8500        23
  73.9000        36
  73.9500        33
  74.0000        35
  74.0500        40
  74.1000        33
  74.1500        38
  74.2000        26
  74.2500        29
  74.3000        37
  74.3500        20
  74.4000        29
  74.4500        32
  74.5000        22
  74.5500        29
  74.6000        32
  74.6500        28
  74.7000        29
  74.7500        33
  74.8000        34
  74.8500        34
  74.9000        24
  74.9500        38
  75.0000        34
  75.0500        30
  75.1000        37
  75.1500        44
  75.2000        32
  75.2500        29
  75.3000        35
  75.3500        31
  75.4000        37
  75.4500        40
  75.5000        38
  75.5500        43
  75.6000        35
  75.6500        48
  75.7000        56
  75.7500        50
  75.8000        54
  75.8500        65
  75.9000        77
  75.9500        79
  76.0000        99
  76.0500       125
  76.1000       139
  76.1500       209
  76.2000       318
  76.2500       347
  76.3000       402
  76.3500       434
  76.4000       445
  76.4500       378
  76.5000       345
  76.5500       302
  76.6000       272
  76.6500       226
  76.7000       165
  76.7500       140
  76.8000       107
  76.8500        76
  76.9000        79
  76.9500        61
  77.0000        53
  77.0500        42
  77.1000        43
  77.1500        41
  77.2000        44
  77.2500        58
  77.3000        30
  77.3500        40
  77.4000        37
  77.4500        32
  77.5000        41
  77.5500        32
  77.6000        36
  77.6500        30
  77.7000        34
  77.7500        37
  77.8000        42
  77.8500        32
  77.9000        46
  77.9500        21
  78.0000        35
  78.0500        29
  78.1000        33
  78.1500        35
  78.2000        31
  78.2500        32
  78.3000        35
  78.3500        24
  78.4000        35
  78.4500        33
  78.5000        30
  78.5500        29
  78.6000        20
  78.6500        26
  78.7000        38
  78.7500        26
  78.8000        30
  78.8500        25
  78.9000        30
  78.9500        24
  79.0000        31
  79.0500        27
  79.1000        32
  79.1500        22
  79.2000        25
  79.2500        31
  79.3000        32
  79.3500        35
  79.4000        25
  79.4500        43
  79.5000        14
  79.5500        25
  79.6000        29
  79.6500        34
  79.7000        20
  79.7500        30
  79.8000        36
  79.8500        29
  79.9000        34
  79.9500        26
  80.0000        30
  80.0500        34
  80.1000        30
  80.1500        28
  80.2000        33
  80.2500        37
  80.3000        28
  80.3500        27
  80.4000        26
  80.4500        29
  80.5000        40
  80.5500        40
  80.6000        32
  80.6500        31
  80.7000        29
  80.7500        33
  80.8000        31
  80.8500        37
  80.9000        31
  80.9500        33
  81.0000        28
  81.0500        33
  81.1000        36
  81.1500        21
  81.2000        33
  81.2500        27
  81.3000        36
  81.3500        29
  81.4000        22
  81.4500        24
  81.5000        33
  81.5500        28
  81.6000        33
  81.6500        27
  81.7000        27
  81.7500        31
  81.8000        25
  81.8500        35
  81.9000        17
  81.9500        27
  82.0000        31
  82.0500        22
  82.1000        19
  82.1500        36
  82.2000        19
  82.2500        36
  82.3000        36
  82.3500        25
  82.4000        30
  82.4500        43
  82.5000        41
  82.5500        29
  82.6000        33
  82.6500        28
  82.7000        29
  82.7500        30
  82.8000        26
  82.8500        27
  82.9000        36
  82.9500        32
  83.0000        37
  83.0500        28
  83.1000        31
  83.1500        34
  83.2000        29
  83.2500        28
  83.3000        32
  83.3500        29
  83.4000        32
  83.4500        27
  83.5000        26
  83.5500        28
  83.6000        29
  83.6500        22
  83.7000        22
  83.7500        30
  83.8000        34
  83.8500        39
  83.9000        40
  83.9500        25
  84.0000        30
  84.0500        24
  84.1000        34
  84.1500        28
  84.2000        30
  84.2500        45
  84.3000        37
  84.3500        27
  84.4000        29
  84.4500        30
  84.5000        23
  84.5500        44
  84.6000        27
  84.6500        39
  84.7000        27
  84.7500        30
  84.8000        26
  84.8500        33
  84.9000        25
  84.9500        29
  85.0000        29
  85.0500        25
  85.1000        33
  85.1500        25
  85.2000        35
  85.2500        30
  85.3000        33
  85.3500        22
  85.4000        35
  85.4500        35
  85.5000        31
  85.5500        35
  85.6000        30
  85.6500        27
  85.7000        26
  85.7500        40
  85.8000        23
  85.8500        36
  85.9000        24
  85.9500        27
  86.0000        27
  86.0500        15
  86.1000        27
  86.1500        26
  86.2000        35
  86.2500        17
  86.3000        27
  86.3500        24
  86.4000        35
  86.4500        31
  86.5000        24
  86.5500        30
  86.6000        32
  86.6500        36
  86.7000        36
  86.7500        33
  86.8000        27
  86.8500        45
  86.9000        21
  86.9500        33
  87.0000        22
  87.0500        30
  87.1000        25
  87.1500        38
  87.2000        22
  87.2500        29
  87.3000        37
  87.3500        28
  87.4000        32
  87.4500        26
  87.5000        21
  87.5500        28
  87.6000        28
  87.6500        22
  87.7000        26
  87.7500        32
  87.8000        40
  87.8500        33
  87.9000        21
  87.9500        29
  88.0000        33
  88.0500        28
  88.1000        32
  88.1500        28
  88.2000        30
  88.2500        34
  88.3000        26
  88.3500        33
  88.4000        35
  88.4500        29
  88.5000        36
  88.5500        33
  88.6000        27
  88.6500        30
  88.7000        29
  88.7500        27
  88.8000        36
  88.8500        28
  88.9000        30
  88.9500        28
  89.0000        38
  89.0500        32
  89.1000        31
  89.1500        31
  89.2000        25
  89.2500        35
  89.3000        42
  89.3500        28
  89.4000        26
  89.4500        31
  89.5000        26
  89.5500        31
  89.6000        20
  89.6500        29
  89.7000        25
  89.7500        36
  89.8000        28
  89.8500        23
  89.9000        29
  89.9500        38
  90.0000        35
  90.0500        35
  90.1000        27
  90.1500        38
  90.2000        29
  90.2500        28
  90.3000        29
  90.3500        42
  90.4000        30
  90.4500        29
  90.5000        32
  90.5500        28
  90.6000        39
  90.6500        29
  90.7000        34
  90.7500        34
  90.8000        32
  90.8500        42
  90.9000        28
  90.9500        28
  91.0000        25
  91.0500        25
  91.1000        30
  91.1500        42
  91.2000        31
  91.2500        39
  91.3000        32
  91.3500        36
  91.4000        38
  91.4500        40
  91.5000        39
  91.5500        41
  91.6000        38
  91.6500        39
  91.7000        42
  91.7500        41
  91.8000        47
  91.8500        39
  91.9000        44
  91.9500        48
  92.0000        34
  92.0500        50
  92.1000        41
  92.1500        47
  92.2000        57
  92.2500        55
  92.3000        68
  92.3500        75
  92.4000        92
  92.4500       100
  92.5000       118
  92.5500       150
  92.6000       133
  92.6500       188
  92.7000       194
  92.7500       247
  92.8000       291
  92.8500       322
  92.9000       366
  92.9500       353
  93.0000       313
  93.0500       287
  93.1000       313
  93.1500       238
  93.2000       232
  93.2500       215
  93.3000       185
  93.3500       152
  93.4000       126
  93.4500       105
  93.5000       102
  93.5500        75
  93.6000        74
  93.6500        72
  93.7000        62
  93.7500        57
  93.8000        63
  93.8500        49
  93.9000        42
  93.9500        60
  94.0000        38
  94.0500        41
  94.1000        31
  94.1500        39
  94.2000        34
  94.2500        37
  94.3000        47
  94.3500        45
  94.4000        35
  94.4500        38
  94.5000        33
  94.5500        33
  94.6000        40
  94.6500        39
  94.7000        40
  94.7500        35
  94.8000        49
  94.8500        28
  94.9000        32
  94.9500        29
  95.0000        26
  95.0500        29
  95.1000        21
  95.1500        34
  95.2000        36
  95.2500        35
  95.3000        39
  95.3500        28
  95.4000        33
  95.4500        40
  95.5000        35
  95.5500        36
  95.6000        35
  95.6500        37
  95.7000        33
  95.7500        35
  95.8000        32
  95.8500        39
  95.9000        35
  95.9500        39
  96.0000        39
  96.0500        40
  96.1000        37
  96.1500        34
  96.2000        32
  96.2500        27
  96.3000        28
  96.3500        28
  96.4000        21
  96.4500        29
  96.5000        38
  96.5500        34
  96.6000        28
  96.6500        44
  96.7000        27
  96.7500        28
  96.8000        27
  96.8500        34
  96.9000        26
  96.9500        27
  97.0000        35
  97.0500        28
  97.1000        25
  97.1500        35
  97.2000        38
  97.2500        45
  97.3000        30
  97.3500        29
  97.4000        37
  97.4500        27
  97.5000        26
  97.5500        35
  97.6000        47
  97.6500        34
  97.7000        42
  97.7500        37
  97.8000        39
  97.8500        52
  97.9000        34
  97.9500        49
  98.0000        44
  98.0500        44
  98.1000        67
  98.1500        63
  98.2000        75
  98.2500        80
  98.3000       118
  98.3500       138
  98.4000       121
  98.4500       126
  98.5000       128
  98.5500       110
  98.6000       123
  98.6500       108
  98.7000        90
  98.7500        91
  98.8000        61
  98.8500        59
  98.9000        76
  98.9500        49
  99.0000        39
  99.0500        34
  99.1000        44
  99.1500        37
  99.2000        40
  99.2500        45
  99.3000        38
  99.3500        37
  99.4000        39
  99.4500        33
  99.5000        33
  99.5500        33
  99.6000        27
  99.6500        31
  99.7000        42
  99.7500        33
  99.8000        29
  99.8500        18
  99.9000        28
  99.9500        33
 100.0000        37
 100.0500        30
 100.1000        33
 100.1500        27
 100.2000        29
 100.2500        29
 100.3000        25
 100.3500        34
 100.4000        20
 100.4500        24
 100.5000        24
 100.5500        31
 100.6000        27
 100.6500        25
 100.7000        27
 100.7500        31
 100.8000        26
 100.8500        28
 100.9000        31
 100.9500        38
 101.0000        30
 101.0500        24
 101.1000        32
 101.1500        25
 101.2000        29
 101.2500        27
 101.3000        26
 101.3500        37
 101.4000        29
 101.4500        24
 101.5000        23
 101.5500        22
 101.6000        26
 101.6500        31
 101.7000        25
 101.7500        29
 101.8000        30
 101.8500        26
 101.9000        27
 101.9500        32
 102.0000        29
 102.0500        24
 102.1000        32
 102.1500        22
 102.2000        31
 102.2500        29
 102.3000        32
 102.3500        27
 102.4000        29
 102.4500        23
 102.5000        34
 102.5500        27
 102.6000        22
 102.6500        38
 102.7000        24
 102.7500        23
 102.8000        21
 102.8500        29
 102.9000        24
 102.9500        23
 103.0000        24
 103.0500        27
 103.1000        46
 103.1500        27
 103.2000        26
 103.2500        24
 103.3000        34
 103.3500        26
 103.4000        30
 103.4500        38
 103.5000        26
 103.5500        33
 103.6000        23
 103.6500        31
 103.7000        32
 103.7500        23
 103.8000        22
 103.8500        28
 103.9000        35
 103.9500        28
 104.0000        20
 104.0500        30
 104.1000        26
 104.1500        19
 104.2000        32
 104.2500        21
 104.3000        27
 104.3500        28
 104.4000        26
 104.4500        23
 104.5000        38
 104.5500        32
 104.6000        28
 104.6500        31
 104.7000        24
 104.7500        32
 104.8000        33
 104.8500        33
 104.9000        25
 104.9500        30
 105.0000        25
 105.0500        25
 105.1000        35
 105.1500        23
 105.2000        28
 105.2500        30
 105.3000        28
 105.3500        26
 105.4000        30
 105.4500        20
 105.5000        29
 105.5500        42
 105.6000        27
 105.6500        26
 105.7000        35
 105.7500        40
 105.8000        26
 105.8500        33
 105.9000        31
 105.9500        34
 106.0000        31
 106.0500        23
 106.1000        44
 106.1500        25
 106.2000        22
 106.2500        21
 106.3000        40
 106.3500        35
 106.4000        39
 106.4500        37
 106.5000        28
 106.5500        28
 106.6000        35
 106.6500        40
 106.7000        25
 106.7500        27
 106.8000        20
 106.8500        25
 106.9000        26
 106.9500        38
 107.0000        45
 107.0500        30
 107.1000        31
 107.1500        27
 107.2000        27
 107.2500        27
 107.3000        29
 107.3500        26
 107.4000        26
 107.4500        34
 107.5000        37
 107.5500        29
 107.6000        34
 107.6500        22
 107.7000        24
 107.7500        37
 107.8000        28
 107.8500        36
 107.9000        35
 107.9500        29
 108.0000        24
 108.0500        34
 108.1000        33
 108.1500        30
 108.2000        31
 108.2500        27
 108.3000        40
 108.3500        26
 108.4000        31
 108.4500        33
 108.5000        20
 108.5500        21
 108.6000        29
 108.6500        25
 108.7000        29
 108.7500        32
 108.8000        32
 108.8500        34
 108.9000        33
 108.9500        31
 109.0000        22
 109.0500        28
 109.1000        22
 109.1500        29
 109.2000        24
 109.2500        24
 109.3000        34
 109.3500        31
 109.4000        35
 109.4500        33
 109.5000        22
 109.5500        29
 109.6000        37
 109.6500        27
 109.7000        28
 109.7500        41
 109.8000        31
 109.8500        31
 109.9000        33
 109.9500        24
 110.0000        30
