  10.0000        38
  10.0500        23
  10.1000        29
  10.1500        31
  10.2000        41
  10.2500        40
  10.3000        38
  10.3500        46
  10.4000        39
  10.4500        42
  10.5000        37
  10.5500        33
  10.6000        37
  10.6500        44
  10.7000        35
  10.7500        26
  10.8000        29
  10.8500        43
  10.9000        36
  10.9500        28
  11.0000        40
  11.0500        33
  11.1000        31
  11.1500        33
  11.2000        36
  11.2500        28
  11.3000        47
  11.3500        34
  11.4000        33
  11.4500        39
  11.5000        31
  11.5500        38
  11.6000        33
  11.6500        46
  11.7000        38
  11.7500        30
  11.8000        38
  11.8500        35
  11.9000        36
  11.9500        28
  12.0000        32
  12.0500        34
  12.1000        28
  12.1500        34
  12.2000        26
  12.2500        20
  12.3000        29
  12.3500        29
  12.4000        35
  12.4500        38
  12.5000        33
  12.5500        23
  12.6000        29
  12.6500        29
  12.7000        30
  12.7500        24
  12.8000        39
  12.8500        32
  12.9000        36
  12.9500        26
  13.0000        31
  13.0500        46
  13.1000        33
  13.1500        37
  13.2000        31
  13.2500        28
  13.3000        32
  13.3500        20
  13.4000        38
  13.4500        32
  13.5000        35
  13.5500        27
  13.6000        29
  13.6500        34
  13.7000        37
  13.7500        28
  13.8000        29
  13.8500        29
  13.9000        41
  13.9500        30
  14.0000        27
  14.0500        30
  14.1000        32
  14.1500        26
  14.2000        26
  14.2500        25
  14.3000        22
  14.3500        29
  14.4000        34
  14.4500        20
  14.5000        28
  14.5500        23
  14.6000        32
  14.6500        13
  14.7000        28
  14.7500        21
  14.8000        21
  14.8500        24
  14.9000        25
  14.9500        33
  15.0000        24
  15.0500        33
  15.1000        31
  15.1500        36
  15.2000        30
  15.2500        30
  15.3000        30
  15.3500        34
  15.4000        26
  15.4500        39
  15.5000        29
  15.5500        41
  15.6000        26
  15.6500        32
  15.7000        28
  15.7500        28
  15.8000        32
  15.8500        22
  15.9000        32
  15.9500        40
  16.0000        31
  16.0500        27
  16.1000        33
  16.1500        39
  16.2000        36
  16.2500        37
  16.3000        31
  16.3500        34
  16.4000        25
  16.4500        31
  16.5000        26
  16.5500        17
  16.6000        28
  16.6500        33
  16.7000        30
  16.7500        26
  16.8000        22
  16.8500        28
  16.9000        28
  16.9500        27
  17.0000        52
  17.0500        30
  17.1000        42
  17.1500        34
  17.2000        34
  17.2500        35
  17.3000        30
  17.3500        21
  17.4000        29
  17.4500        41
  17.5000        27
  17.5500        27
  17.6000        22
  17.6500        32
  17.7000        39
  17.7500        33
  17.8000        31
  17.8500        32
  17.9000        27
  17.9500        28
  18.0000        38
  18.0500        28
  18.1000        29
  18.1500        27
  18.2000        34
  18.2500        37
  18.3000        37
  18.3500        25
  18.4000        34
  18.4500        37
  18.5000        30
  18.5500        29
  18.6000        26
  18.6500        38
  18.7000        34
  18.7500        30
  18.8000        27
  18.8500        37
  18.9000        33
  18.9500        36
  19.0000        30
  19.0500        28
  19.1000        33
  19.1500        24
  19.2000        28
  19.2500        27
  19.3000        25
  19.3500        24
  19.4000        25
  19.4500        38
  19.5000        31
  19.5500        27
  19.6000        36
  19.6500        30
  19.7000        29
  19.7500        35
  19.8000        21
  19.8500        19
  19.9000        34
  19.9500        32
  20.0000        24
  20.0500        35
  20.1000        35
  20.1500        25
  20.2000        43
  20.2500        31
  20.3000        25
  20.3500        25
  20.4000        28
  20.4500        18
  20.5000        25
  20.5500        32
  20.6000        35
  20.6500        32
  20.7000        30
  20.7500        35
  20.8000        28
  20.8500        33
  20.9000        41
  20.9500        25
  21.0000        28
  21.0500        25
  21.1000        35
  21.1500        31
  21.2000        24
  21.2500        33
  21.3000        28
  21.3500        37
  21.4000        28
  21.4500        16
  21.5000        42
  21.5500        34
  21.6000        28
  21.6500        26
  21.7000        27
  21.7500        33
  21.8000        26
  21.8500        26
  21.9000        21
  21.9500        26
  22.0000        26
  22.0500        28
  22.1000        39
  22.1500        22
  22.2000        38
  22.2500        27
  22.3000        20
  22.3500        22
  22.4000        31
  22.4500        40
  22.5000        32
  22.5500        31
  22.6000        15
  22.6500        26
  22.7000        30
  22.7500        27
  22.8000        33
  22.8500        34
  22.9000        27
  22.9500        22
  23.0000        31
  23.0500        22
  23.1000        24
  23.1500        30
  23.2000        34
  23.2500        28
  23.3000        20
  23.3500        33
  23.4000        25
  23.4500        28
  23.5000        35
  23.5500        27
  23.6000        33
  23.6500        22
  23.7000        30
  23.7500        40
  23.8000        17
  23.8500        26
  23.9000        29
  23.9500        31
  24.0000        40
  24.0500        30
  24.1000        24
  24.1500        17
  24.2000        26
  24.2500        30
  24.3000        17
  24.3500        28
  24.4000        34
  24.4500        38
  24.5000        17
  24.5500        39
  24.6000        24
  24.6500        24
  24.7000        23
  24.7500        27
  24.8000        30
  24.8500        22
  24.9000        31
  24.9500        33
  25.0000        29
  25.0500        29
  25.1000        32
  25.1500        34
  25.2000        22
  25.2500        29
  25.3000        36
  25.3500        28
  25.4000        25
  25.4500        34
  25.5000        29
  25.5500        25
  25.6000        26
  25.6500        34
  25.7000        38
  25.7500        26
  25.8000        31
  25.8500        37
  25.9000        25
  25.9500        23
  26.0000        34
  26.0500        35
  26.1000        27
  26.1500        27
  26.2000        25
  26.2500        33
  26.3000        40
  26.3500        25
  26.4000        27
  26.4500        20
  26.5000        20
  26.5500        27
  26.6000        34
  26.6500        29
  26.7000        32
  26.7500        25
  26.8000        28
  26.8500        31
  26.9000        30
  26.9500        24
  27.0000        28
  27.0500        23
  27.1000        31
  27.1500        29
  27.2000        18
  27.2500        25
  27.3000        23
  27.3500        17
  27.4000        29
  27.4500        28
  27.5000        27
  27.5500        24
  27.6000        24
  27.6500        25
  27.7000        28
  27.7500        29
  27.8000        21
  27.8500        31
  27.9000        29
  27.9500        30
  28.0000        31
  28.0500        21
  28.1000        26
  28.1500        18
  28.2000        36
  28.2500        23
  28.3000        24
  28.3500        42
  28.4000        22
  28.4500        33
  28.5000        27
  28.5500        27
  28.6000        31
  28.6500        24
  28.7000        26
  28.7500        27
  28.8000        30
  28.8500        21
  28.9000        29
  28.9500        29
  29.0000        25
  29.0500        36
  29.1000        21
  29.1500        25
  29.2000        34
  29.2500        28
  29.3000        35
  29.3500        35
  29.4000        34
  29.4500        23
  29.5000        27
  29.5500        24
  29.6000        31
  29.6500        28
  29.7000        23
  29.7500        17
  29.8000        19
  29.8500        37
  29.9000        25
  29.9500        28
  30.0000        30
  30.0500        26
  30.1000        19
  30.1500        32
  30.2000        37
  30.2500        24
  30.3000        39
  30.3500        32
  30.4000        33
  30.4500        26
  30.5000        32
  30.5500        34
  30.6000        22
  30.6500        38
  30.7000        34
  30.7500        37
  30.8000        18
  30.8500        23
  30.9000        29
  30.9500        24
  31.0000        28
  31.0500        24
  31.1000        19
  31.1500        31
  31.2000        24
  31.2500        33
  31.3000        39
  31.3500        25
  31.4000        39
  31.4500        21
  31.5000        32
  31.5500        26
  31.6000        32
  31.6500        25
  31.7000        25
  31.7500        27
  31.8000        31
  31.8500        26
  31.9000        21
  31.9500        26
  32.0000        22
  32.0500        23
  32.1000        23
  32.1500        27
  32.2000        25
  32.2500        23
  32.3000        32
  32.3500        27
  32.4000        22
  32.4500        25
  32.5000        30
  32.5500        35
  32.6000        26
  32.6500        38
  32.7000        23
  32.7500        30
  32.8000        24
  32.8500        23
  32.9000        27
  32.9500        30
  33.0000        29
  33.0500        25
  33.1000        34
  33.1500        25
  33.2000        30
  33.2500        24
  33.3000        31
  33.3500        29
  33.4000        29
  33.4500        32
  33.5000        21
  33.5500        28
  33.6000        31
  33.6500        27
  33.7000        30
  33.7500        36
  33.8000        25
  33.8500        35
  33.9000        30
  33.9500        28
  34.0000        27
  34.0500        24
  34.1000        23
  34.1500        27
  34.2000        25
  34.2500        36
  34.3000        30
  34.3500        32
  34.4000        21
  34.4500        26
  34.5000        34
  34.5500        28
  34.6000        21
  34.6500        31
  34.7000        33
  34.7500        20
  34.8000        31
  34.8500        26
  34.9000        31
  34.9500        23
  35.0000        25
  35.0500        23
  35.1000        26
  35.1500        28
  35.2000        23
  35.2500        26
  35.3000        28
  35.3500        31
  35.4000        15
  35.4500        37
  35.5000        31
  35.5500        28
  35.6000        34
  35.6500        33
  35.7000        30
  35.7500        23
  35.8000        26
  35.8500        28
  35.9000        28
  35.9500        34
  36.0000        19
  36.0500        25
  36.1000        32
  36.1500        24
  36.2000        28
  36.2500        22
  36.3000        29
  36.3500        30
  36.4000        35
  36.4500        27
  36.5000        26
  36.5500        22
  36.6000        32
  36.6500        23
  36.7000        39
  36.7500        37
  36.8000        36
  36.8500        31
  36.9000        26
  36.9500        20
  37.0000        21
  37.0500        25
  37.1000        30
  37.1500        34
  37.2000        39
  37.2500        41
  37.3000        26
  37.3500        42
  37.4000        29
  37.4500        32
  37.5000        28
  37.5500        32
  37.6000        33
  37.6500        26
  37.7000        24
  37.7500        26
  37.8000        18
  37.8500        20
  37.9000        25
  37.9500        26
  38.0000        33
  38.0500        26
  38.1000        34
  38.1500        31
  38.2000        39
  38.2500        34
  38.3000        31
  38.3500        25
  38.4000        24
  38.4500        36
  38.5000        27
  38.5500        31
  38.6000        32
  38.6500        30
  38.7000        42
  38.7500        16
  38.8000        26
  38.8500        33
  38.9000        29
  38.9500        22
  39.0000        30
  39.0500        26
  39.1000        24
  39.1500        26
  39.2000        32
  39.2500        27
  39.3000        30
  39.3500        25
  39.4000        30
  39.4500        29
  39.5000        38
  39.5500        23
  39.6000        29
  39.6500        34
  39.7000        32
  39.7500        37
  39.8000        28
  39.8500        28
  39.9000        28
  39.9500        26
  40.0000        21
  40.0500        35
  40.1000        35
  40.1500        29
  40.2000        34
  40.2500        15
  40.3000        41
  40.3500        25
  40.4000        24
  40.4500        28
  40.5000        36
  40.5500        45
  40.6000        22
  40.6500        28
  40.7000        27
  40.7500        34
  40.8000        25
  40.8500        26
  40.9000        26
  40.9500        40
  41.0000        30
  41.0500        26
  41.1000        34
  41.1500        26
  41.2000        36
  41.2500        29
  41.3000        30
  41.3500        35
  41.4000        36
  41.4500        22
  41.5000        24
  41.5500        38
  41.6000        33
  41.6500        38
  41.7000        36
  41.7500        27
  41.8000        40
  41.8500        39
  41.9000        34
  41.9500        35
  42.0000        26
  42.0500        25
  42.1000        40
  42.1500        38
  42.2000        24
  42.2500        41
  42.3000        33
  42.3500        27
  42.4000        28
  42.4500        27
  42.5000        35
  42.5500        31
  42.6000        26
  42.6500        31
  42.7000        40
  42.7500        36
  42.8000        30
  42.8500        35
  42.9000        28
  42.9500        38
  43.0000        33
  43.0500        41
  43.1000        39
  43.1500        37
  43.2000        55
  43.2500        47
  43.3000        51
  43.3500        34
  43.4000        46
  43.4500        48
  43.5000        52
  43.5500        55
  43.6000        34
  43.6500        58
  43.7000        73
  43.7500        58
  43.8000        54
  43.8500        67
  43.9000        93
  43.9500        95
  44.0000       108
  44.0500       129
  44.1000       180
  44.1500       224
  44.2000       348
  44.2500       626
  44.3000       958
  44.3500      1564
  44.4000      2167
  44.4500      2607
  44.5000      2562
  44.5500      2177
  44.6000      1731
  44.6500      1208
  44.7000       709
  44.7500       454
  44.8000       292
  44.8500       210
  44.9000       144
  44.9500       124
  45.0000        90
  45.0500        74
  45.1000        69
  45.1500        43
  45.2000        63
  45.2500        44
  45.3000        59
  45.3500        42
  45.4000        50
  45.4500        43
  45.5000        42
  45.5500        48
  45.6000        47
  45.6500        37
  45.7000        36
  45.7500        51
  45.8000        40
  45.8500        51
  45.9000        32
  45.9500        38
  46.0000        30
  46.0500        31
  46.1000        30
  46.1500        35
  46.2000        31
  46.2500        26
  46.3000        30
  46.3500        27
  46.4000        22
  46.4500        33
  46.5000        36
  46.5500        37
  46.6000        32
  46.6500        31
  46.7000        30
  46.7500        22
  46.8000        30
  46.8500        26
  46.9000        32
  46.9500        32
  47.0000        38
  47.0500        37
  47.1000        25
  47.1500        39
  47.2000        28
  47.2500        33
  47.3000        28
  47.3500        38
  47.4000        29
  47.4500        38
  47.5000        40
  47.5500        25
  47.6000        30
  47.6500        33
  47.7000        22
  47.7500        30
  47.8000        28
  47.8500        32
  47.9000        29
  47.9500        30
  48.0000        27
  48.0500        36
  48.1000        26
  48.1500        23
  48.2000        36
  48.2500        33
  48.3000        42
  48.3500        38
  48.4000        28
  48.4500        36
  48.5000        30
  48.5500        37
  48.6000        29
  48.6500        35
  48.7000        29
  48.7500        28
  48.8000        29
  48.8500        27
  48.9000        29
  48.9500        32
  49.0000        25
  49.0500        33
  49.1000        25
  49.1500        24
  49.2000        30
  49.2500        34
  49.3000        30
  49.3500        33
  49.4000        21
  49.4500        26
  49.5000        37
  49.5500        32
  49.6000        31
  49.6500        36
  49.7000        40
  49.7500        34
  49.8000        36
  49.8500        27
  49.9000        31
  49.9500        41
  50.0000        30
  50.0500        31
  50.1000        34
  50.1500        47
  50.2000        20
  50.2500        28
  50.3000        33
  50.3500        32
  50.4000        31
  50.4500        34
  50.5000        46
  50.5500        46
  50.6000        45
  50.6500        42
  50.7000        32
  50.7500        43
  50.8000        44
  50.8500        42
  50.9000        43
  50.9500        51
  51.0000        39
  51.0500        56
  51.1000        51
  51.1500        50
  51.2000        66
  51.2500        81
  51.3000        68
  51.3500        84
  51.4000       103
  51.4500       148
  51.5000       168
  51.5500       253
  51.6000       382
  51.6500       466
  51.7000       614
  51.7500       785
  51.8000       912
  51.8500       859
  51.9000       826
  51.9500       705
  52.0000       541
  52.0500       371
  52.1000       292
  52.1500       196
  52.2000       153
  52.2500       114
  52.3000        83
  52.3500        81
  52.4000        75
  52.4500        58
  52.5000        43
  52.5500        52
  52.6000        48
  52.6500        47
  52.7000        38
  52.7500        23
  52.8000        39
  52.8500        40
  52.9000        25
  52.9500        29
  53.0000        27
  53.0500        46
  53.1000        22
  53.1500        35
  53.2000        25
  53.2500        35
  53.3000        25
  53.3500        38
  53.4000        33
  53.4500        26
  53.5000        23
  53.5500        40
  53.6000        24
  53.6500        25
  53.7000        31
  53.7500        30
  53.8000        30
  53.8500        32
  53.9000        33
  53.9500        23
  54.0000        23
  54.0500        32
  54.1000        28
  54.1500        34
  54.2000        26
  54.2500        30
  54.3000        21
  54.3500        30
  54.4000        28
  54.4500        26
  54.5000        32
  54.5500        35
  54.6000        21
  54.6500        21
  54.7000        29
  54.7500        28
  54.8000        32
  54.8500        26
  54.9000        23
  54.9500        37
  55.0000        28
  55.0500        25
  55.1000        22
  55.1500        21
  55.2000        30
  55.2500        30
  55.3000        22
  55.3500        34
  55.4000        21
  55.4500        27
  55.5000        36
  55.5500        27
  55.6000        25
  55.6500        30
  55.7000        28
  55.7500        38
  55.8000        21
  55.8500        20
  55.9000        25
  55.9500        30
  56.0000        28
  56.0500        22
  56.1000        22
  56.1500        25
  56.2000        25
  56.2500        25
  56.3000        26
  56.3500        21
  56.4000        32
  56.4500        19
  56.5000        23
  56.5500        16
  56.6000        24
  56.6500        26
  56.7000        32
  56.7500        33
  56.8000        29
  56.8500        31
  56.9000        20
  56.9500        23
  57.0000        25
  57.0500        28
  57.1000        15
  57.1500        22
  57.2000        23
  57.2500        33
  57.3000        25
  57.3500        21
  57.4000        32
  57.4500        28
  57.5000        18
  57.5500        21
  57.6000        26
  57.6500        27
  57.7000        27
  57.7500        36
  57.8000        27
  57.8500        29
  57.9000        21
  57.9500        23
  58.0000        31
  58.0500        20
  58.1000        23
  58.1500        29
  58.2000        26
  58.2500        29
  58.3000        29
  58.3500        23
  58.4000        25
  58.4500        25
  58.5000        31
  58.5500        23
  58.6000        26
  58.6500        24
  58.7000        18
  58.7500        21
  58.8000        23
  58.8500        26
  58.9000        23
  58.9500        24
  59.0000        23
  59.0500        28
  59.1000        21
  59.1500        31
  59.2000        22
  59.2500        32
  59.3000        22
  59.3500        26
  59.4000        29
  59.4500        25
  59.5000        26
  59.5500        29
  59.6000        27
  59.6500        20
  59.7000        28
  59.7500        26
  59.8000        32
  59.8500        25
  59.9000        26
  59.9500        36
  60.0000        36
  60.0500        28
  60.1000        25
  60.1500        34
  60.2000        22
  60.2500        32
  60.3000        16
  60.3500        24
  60.4000        38
  60.4500        26
  60.5000        25
  60.5500        23
  60.6000        33
  60.6500        22
  60.7000        20
  60.7500        32
  60.8000        23
  60.8500        25
  60.9000        23
  60.9500        18
  61.0000        28
  61.0500        19
  61.1000        23
  61.1500        25
  61.2000        33
  61.2500        36
  61.3000        27
  61.3500        26
  61.4000        24
  61.4500        35
  61.5000        28
  61.5500        29
  61.6000        18
  61.6500        21
  61.7000        23
  61.7500        32
  61.8000        30
  61.8500        27
  61.9000        21
  61.9500        31
  62.0000        22
  62.0500        34
  62.1000        28
  62.1500        39
  62.2000        22
  62.2500        23
  62.3000        32
  62.3500        26
  62.4000        25
  62.4500        25
  62.5000        31
  62.5500        25
  62.6000        24
  62.6500        26
  62.7000        31
  62.7500        18
  62.8000        25
  62.8500        27
  62.9000        36
  62.9500        28
  63.0000        25
  63.0500        33
  63.1000        31
  63.1500        28
  63.2000        21
  63.2500        28
  63.3000        30
  63.3500        20
  63.4000        28
  63.4500        29
  63.5000        34
  63.5500        27
  63.6000        27
  63.6500        30
  63.7000        26
  63.7500        27
  63.8000        24
  63.8500        21
  63.9000        40
  63.9500        24
  64.0000        38
  64.0500        25
  64.1000        30
  64.1500        27
  64.2000        26
  64.2500        35
  64.3000        39
  64.3500        37
  64.4000        36
  64.4500        22
  64.5000        15
  64.5500        25
  64.6000        20
  64.6500        23
  64.7000        35
  64.7500        24
  64.8000        26
  64.8500        20
  64.9000        19
  64.9500        20
  65.0000        28
  65.0500        25
  65.1000        31
  65.1500        26
  65.2000        29
  65.2500        30
  65.3000        26
  65.3500        23
  65.4000        26
  65.4500        21
  65.5000        24
  65.5500        22
  65.6000        22
  65.6500        27
  65.7000        25
  65.7500        34
  65.8000        35
  65.8500        24
  65.9000        28
  65.9500        21
  66.0000        29
  66.0500        24
  66.1000        24
  66.1500        36
  66.2000        25
  66.2500        29
  66.3000        33
  66.3500        26
  66.4000        18
  66.4500        32
  66.5000        37
  66.5500        20
  66.6000        27
  66.6500        29
  66.7000        28
  66.7500        26
  66.8000        31
  66.8500        30
  66.9000        26
  66.9500        23
  67.0000        30
  67.0500        25
  67.1000        31
  67.1500        24
  67.2000        29
  67.2500        34
  67.3000        31
  67.3500        30
  67.4000        17
  67.4500        22
  67.5000        20
  67.5500        20
  67.6000        27
  67.6500        18
  67.7000        33
  67.7500        26
  67.8000        18
  67.8500        22
  67.9000        27
  67.9500        29
  68.0000        28
  68.0500        21
  68.1000        22
  68.1500        21
  68.2000        21
  68.2500        26
  68.3000        33
  68.3500        21
  68.4000        31
  68.4500        33
  68.5000        23
  68.5500        28
  68.6000        27
  68.6500        25
  68.7000        29
  68.7500        28
  68.8000        20
  68.8500        28
  68.9000        29
  68.9500        24
  69.0000        32
  69.0500        17
  69.1000        23
  69.1500        26
  69.2000        23
  69.2500        30
  69.3000        23
  69.3500        28
  69.4000        36
  69.4500        21
  69.5000        27
  69.5500        36
  69.6000        38
  69.6500        32
  69.7000        22
  69.7500        31
  69.8000        35
  69.8500        30
  69.9000        28
  69.9500        31
  70.0000        25
  70.0500        21
  70.1000        20
  70.1500        25
  70.2000        25
  70.2500        21
  70.3000        28
  70.3500        27
  70.4000        32
  70.4500        23
  70.5000        30
  70.5500        14
  70.6000        17
  70.6500        37
  70.7000        25
  70.7500        24
  70.8000        23
  70.8500        21
  70.9000        24
  70.9500        25
  71.0000        28
  71.0500        27
  71.1000        21
  71.1500        36
  71.2000        24
  71.2500        29
  71.3000        24
  71.3500        20
  71.4000        27
  71.4500        32
  71.5000        27
  71.5500        26
  71.6000        23
  71.6500        21
  71.7000        23
  71.7500        15
  71.8000        23
  71.8500        20
  71.9000        30
  71.9500        36
  72.0000        22
  72.0500        25
  72.1000        31
  72.1500        27
  72.2000        31
  72.2500        27
  72.3000        37
  72.3500        26
  72.4000        32
  72.4500        25
  72.5000        31
  72.5500        22
  72.6000        32
  72.6500        24
  72.7000        27
  72.7500        30
  72.8000        26
  72.8500        26
  72.9000        34
  72.9500        28
  73.0000        21
  73.0500        31
  73.1000        25
  73.1500        26
  73.2000        25
  73.2500        28
  73.3000        28
  73.3500        20
  73.4000        32
  73.4500        24
  73.5000        27
  73.5500        35
  73.6000        32
  73.6500        27
  73.7000        29
  73.7500        24
  73.8000        31
  73.8500        15
  73.9000        22
  73.9500        27
  74.0000        37
  74.0500        34
  74.1000        29
  74.1500        30
  74.2000        32
  74.2500        34
  74.3000        39
  74.3500        28
  74.4000        31
  74.4500        23
  74.5000        34
  74.5500        32
  74.6000        46
  74.6500        27
  74.7000        29
  74.7500        31
  74.8000        37
  74.8500        39
  74.9000        31
  74.9500        26
  75.0000        47
  75.0500        38
  75.1000        37
  75.1500        19
  75.2000        27
  75.2500        35
  75.3000        45
  75.3500        40
  75.4000        24
  75.4500        40
  75.5000        36
  75.5500        30
  75.6000        45
  75.6500        29
  75.7000        54
  75.7500        37
  75.8000        49
  75.8500        60
  75.9000        72
  75.9500        89
  76.0000        95
  76.0500       109
  76.1000       136
  76.1500       215
  76.2000       229
  76.2500       310
  76.3000       333
  76.3500       390
  76.4000       399
  76.4500       338
  76.5000       292
  76.5500       293
  76.6000       225
  76.6500       181
  76.7000       148
  76.7500       114
  76.8000        85
  76.8500        86
  76.9000        58
  76.9500        51
  77.0000        58
  77.0500        48
  77.1000        36
  77.1500        45
  77.2000        50
  77.2500        22
  77.3000        40
  77.3500        38
  77.4000        41
  77.4500        25
  77.5000        31
  77.5500        36
  77.6000        32
  77.6500        25
  77.7000        36
  77.7500        35
  77.8000        22
  77.8500        33
  77.9000        34
  77.9500        19
  78.0000        33
  78.0500        40
  78.1000        32
  78.1500        38
  78.2000        30
  78.2500        32
  78.3000        31
  78.3500        28
  78.4000        27
  78.4500        45
  78.5000        28
  78.5500        30
  78.6000        22
  78.6500        30
  78.7000        27
  78.7500        24
  78.8000        33
  78.8500        26
  78.9000        32
  78.9500        32
  79.0000        31
  79.0500        28
  79.1000        31
  79.1500        32
  79.2000        26
  79.2500        32
  79.3000        38
  79.3500        37
  79.4000        26
  79.4500        23
  79.5000        30
  79.5500        16
  79.6000        37
  79.6500        23
  79.7000        37
  79.7500        32
  79.8000        24
  79.8500        33
  79.9000        30
  79.9500        30
  80.0000        28
  80.0500        27
  80.1000        38
  80.1500        29
  80.2000        33
  80.2500        23
  80.3000        23
  80.3500        26
  80.4000        31
  80.4500        31
  80.5000        27
  80.5500        23
  80.6000        25
  80.6500        22
  80.7000        25
  80.7500        18
  80.8000        37
  80.8500        26
  80.9000        35
  80.9500        25
  81.0000        22
  81.0500        22
  81.1000        21
  81.1500        18
  81.2000        26
  81.2500        30
  81.3000        26
  81.3500        36
  81.4000        21
  81.4500        22
  81.5000        30
  81.5500        26
  81.6000        27
  81.6500        24
  81.7000        21
  81.7500        25
  81.8000        29
  81.8500        29
  81.9000        25
  81.9500        25
  82.0000        24
  82.0500        27
  82.1000        28
  82.1500        25
  82.2000        31
  82.2500        29
  82.3000        28
  82.3500        24
  82.4000        26
  82.4500        29
  82.5000        26
  82.5500        23
  82.6000        32
  82.6500        28
  82.7000        38
  82.7500        23
  82.8000        25
  82.8500        28
  82.9000        40
  82.9500        37
  83.0000        25
  83.0500        32
  83.1000        25
  83.1500        28
  83.2000        34
  83.2500        27
  83.3000        29
  83.3500        33
  83.4000        22
  83.4500        31
  83.5000        21
  83.5500        30
  83.6000        32
  83.6500        34
  83.7000        27
  83.7500        33
  83.8000        32
  83.8500        22
  83.9000        17
  83.9500        25
  84.0000        36
  84.0500        19
  84.1000        22
  84.1500        24
  84.2000        33
  84.2500        28
  84.3000        31
  84.3500        24
  84.4000        32
  84.4500        17
  84.5000        32
  84.5500        23
  84.6000        33
  84.6500        30
  84.7000        26
  84.7500        29
  84.8000        23
  84.8500        30
  84.9000        27
  84.9500        23
  85.0000        20
  85.0500        32
  85.1000        32
  85.1500        37
  85.2000        28
  85.2500        29
  85.3000        26
  85.3500        29
  85.4000        27
  85.4500        30
  85.5000        23
  85.5500        27
  85.6000        28
  85.6500        30
  85.7000        22
  85.7500        26
  85.8000        26
  85.8500        28
  85.9000        24
  85.9500        22
  86.0000        24
  86.0500        33
  86.1000        26
  86.1500        21
  86.2000        31
  86.2500        29
  86.3000        21
  86.3500        42
  86.4000        19
  86.4500        32
  86.5000        27
  86.5500        30
  86.6000        22
  86.6500        23
  86.7000        21
  86.7500        25
  86.8000        32
  86.8500        31
  86.9000        25
  86.9500        28
  87.0000        25
  87.0500        22
  87.1000        21
  87.1500        30
  87.2000        23
  87.2500        35
  87.3000        24
  87.3500        19
  87.4000        20
  87.4500        33
  87.5000        27
  87.5500        32
  87.6000        36
  87.6500        29
  87.7000        31
  87.7500        28
  87.8000        28
  87.8500        18
  87.9000        27
  87.9500        30
  88.0000        23
  88.0500        24
  88.1000        32
  88.1500        25
  88.2000        26
  88.2500        32
  88.3000        22
  88.3500        40
  88.4000        27
  88.4500        22
  88.5000        23
  88.5500        31
  88.6000        22
  88.6500        25
  88.7000        33
  88.7500        30
  88.8000        32
  88.8500        25
  88.9000        26
  88.9500        30
  89.0000        30
  89.0500        26
  89.1000        26
  89.1500        36
  89.2000        23
  89.2500        29
  89.3000        21
  89.3500        28
  89.4000        29
  89.4500        17
  89.5000        27
  89.5500        29
  89.6000        28
  89.6500        34
  89.7000        20
  89.7500        29
  89.8000        35
  89.8500        30
  89.9000        34
  89.9500        26
  90.0000        30
  90.0500        33
  90.1000        30
  90.1500        21
  90.2000        29
  90.2500        31
  90.3000        33
  90.3500        21
  90.4000        29
  90.4500        31
  90.5000        20
  90.5500        28
  90.6000        37
  90.6500        27
  90.7000        40
  90.7500        37
  90.8000        29
  90.8500        35
  90.9000        28
  90.9500        31
  91.0000        33
  91.0500        33
  91.1000        23
  91.1500        34
  91.2000        33
  91.2500        31
  91.3000        34
  91.3500        28
  91.4000        45
  91.4500        42
  91.5000        28
  91.5500        38
  91.6000        35
  91.6500        40
  91.7000        47
  91.7500        43
  91.8000        30
  91.8500        33
  91.9000        37
  91.9500        45
  92.0000        33
  92.0500        37
  92.1000        53
  92.1500        55
  92.2000        53
  92.2500        38
  92.3000        73
  92.3500        74
  92.4000        92
  92.4500        84
  92.5000        92
  92.5500       121
  92.6000       128
  92.6500       148
  92.7000       202
  92.7500       223
  92.8000       270
  92.8500       294
  92.9000       294
  92.9500       305
  93.0000       263
  93.0500       269
  93.1000       265
  93.1500       241
  93.2000       197
  93.2500       196
  93.3000       185
  93.3500       136
  93.4000       122
  93.4500        90
  93.5000        77
  93.5500        78
  93.6000        72
  93.6500        45
  93.7000        63
  93.7500        57
  93.8000        47
  93.8500        40
  93.9000        38
  93.9500        42
  94.0000        35
  94.0500        32
  94.1000        36
  94.1500        44
  94.2000        34
  94.2500        34
  94.3000        34
  94.3500        39
  94.4000        28
  94.4500        35
  94.5000        28
  94.5500        26
  94.6000        33
  94.6500        24
  94.7000        29
  94.7500        36
  94.8000        44
  94.8500        33
  94.9000        41
  94.9500        27
  95.0000        29
  95.0500        37
  95.1000        26
  95.1500        27
  95.2000        20
  95.2500        28
  95.3000        33
  95.3500        21
  95.4000        28
  95.4500        28
  95.5000        19
  95.5500        31
  95.6000        37
  95.6500        18
  95.7000        28
  95.7500        38
  95.8000        33
  95.8500        26
  95.9000        31
  95.9500        25
  96.0000        33
  96.0500        27
  96.1000        25
  96.1500        32
  96.2000        29
  96.2500        31
  96.3000        34
  96.3500        25
  96.4000        25
  96.4500        16
  96.5000        31
  96.5500        36
  96.6000        36
  96.6500        29
  96.7000        41
  96.7500        30
  96.8000        26
  96.8500        28
  96.9000        30
  96.9500        30
  97.0000        33
  97.0500        26
  97.1000        26
  97.1500        31
  97.2000        23
  97.2500        18
  97.3000        32
  97.3500        37
  97.4000        24
  97.4500        23
  97.5000        21
  97.5500        36
  97.6000        29
  97.6500        36
  97.7000        40
  97.7500        33
  97.8000        31
  97.8500        40
  97.9000        50
  97.9500        32
  98.0000        52
  98.0500        52
  98.1000        54
  98.1500        69
  98.2000        71
  98.2500        77
  98.3000       103
  98.3500       125
  98.4000       113
  98.4500       116
  98.5000       117
  98.5500       113
  98.6000        88
  98.6500        88
  98.7000        91
  98.7500        89
  98.8000        85
  98.8500        82
  98.9000        51
  98.9500        60
  99.0000        56
  99.0500        37
  99.1000        47
  99.1500        40
  99.2000        26
  99.2500        42
  99.3000        26
  99.3500        39
  99.4000        28
  99.4500        18
  99.5000        25
  99.5500        30
  99.6000        26
  99.6500        25
  99.7000        30
  99.7500        27
  99.8000        31
  99.8500        19
  99.9000        35
  99.9500        39
 100.0000        29
 100.0500        33
 100.1000        27
 100.1500        27
 100.2000        28
 100.2500        22
 100.3000        24
 100.3500        30
 100.4000        16
 100.4500        26
 100.5000        36
 100.5500        27
 100.6000        35
 100.6500        27
 100.7000        26
 100.7500        27
 100.8000        27
 100.8500        33
 100.9000        22
 100.9500        38
 101.0000        39
 101.0500        22
 101.1000        31
 101.1500        33
 101.2000        22
 101.2500        23
 101.3000        20
 101.3500        31
 101.4000        34
 101.4500        38
 101.5000        28
 101.5500        20
 101.6000        17
 101.6500        23
 101.7000        28
 101.7500        28
 101.8000        24
 101.8500        25
 101.9000        32
 101.9500        28
 102.0000        35
 102.0500        23
 102.1000        31
 102.1500        32
 102.2000        30
 102.2500        19
 102.3000        32
 102.3500        30
 102.4000        26
 102.4500        24
 102.5000        27
 102.5500        29
 102.6000        30
 102.6500        24
 102.7000        27
 102.7500        39
 102.8000        28
 102.8500        32
 102.9000        30
 102.9500        29
 103.0000        29
 103.0500        27
 103.1000        27
 103.1500        17
 103.2000        25
 103.2500        26
 103.3000        26
 103.3500        33
 103.4000        22
 103.4500        27
 103.5000        23
 103.5500        25
 103.6000        24
 103.6500        25
 103.7000        33
 103.7500        38
 103.8000        23
 103.8500        23
 103.9000        29
 103.9500        28
 104.0000        25
 104.0500        24
 104.1000        26
 104.1500        26
 104.2000        21
 104.2500        38
 104.3000        26
 104.3500        36
 104.4000        27
 104.4500        32
 104.5000        28
 104.5500        30
 104.6000        28
 104.6500        26
 104.7000        29
 104.7500        22
 104.8000        30
 104.8500        29
 104.9000        31
 104.9500        29
 105.0000        26
 105.0500        33
 105.1000        21
 105.1500        23
 105.2000        39
 105.2500        22
 105.3000        25
 105.3500        24
 105.4000        28
 105.4500        35
 105.5000        33
 105.5500        28
 105.6000        28
 105.6500        29
 105.7000        25
 105.7500        32
 105.8000        27
 105.8500        21
 105.9000        37
 105.9500        33
 106.0000        24
 106.0500        33
 106.1000        28
 106.1500        29
 106.2000        31
 106.2500        25
 106.3000        25
 106.3500        30
 106.4000        18
 106.4500        30
 106.5000        20
 106.5500        29
 106.6000        34
 106.6500        15
 106.7000        28
 106.7500        23
 106.8000        34
 106.8500        20
 106.9000        24
 106.9500        17
 107.0000        23
 107.0500        32
 107.1000        35
 107.1500        27
 107.2000        24
 107.2500        28
 107.3000        28
 107.3500        28
 107.4000        32
 107.4500        26
 107.5000        27
 107.5500        24
 107.6000        24
 107.6500        19
 107.7000        23
 107.7500        24
 107.8000        25
 107.8500        29
 107.9000        31
 107.9500        23
 108.0000        19
 108.0500        23
 108.1000        25
 108.1500        24
 108.2000        26
 108.2500        21
 108.3000        19
 108.3500        26
 108.4000        27
 108.4500        30
 108.5000        30
 108.5500        26
 108.6000        23
 108.6500        23
 108.7000        25
 108.7500        28
 108.8000        27
 108.8500        33
 108.9000        31
 108.9500        27
 109.0000        29
 109.0500        22
 109.1000        30
 109.1500        27
 109.2000        29
 109.2500        28
 109.3000        18
 109.3500        23
 109.4000        38
 109.4500        21
 109.5000        34
 109.5500        25
 109.6000        25
 109.6500        23
 109.7000        34
 109.7500        23
 109.8000        26
 109.8500        24
 109.9000        18
 109.9500        27
 110.0000        29
