  10.0000        29
  10.0500        25
  10.1000        43
  10.1500        33
  10.2000        36
  10.2500        30
  10.3000        35
  10.3500        40
  10.4000        39
  10.4500        28
  10.5000        40
  10.5500        25
  10.6000        33
  10.6500        24
  10.7000        24
  10.7500        33
  10.8000        35
  10.8500        34
  10.9000        30
  10.9500        29
  11.0000        18
  11.0500        27
  11.1000        32
  11.1500        24
  11.2000        33
  11.2500        32
  11.3000        30
  11.3500        31
  11.4000        34
  11.4500        23
  11.5000        26
  11.5500        34
  11.6000        30
  11.6500        26
  11.7000        43
  11.7500        34
  11.8000        33
  11.8500        29
  11.9000        32
  11.9500        35
  12.0000        24
  12.0500        34
  12.1000        24
  12.1500        42
  12.2000        34
  12.2500        34
  12.3000        25
  12.3500        28
  12.4000        39
  12.4500        48
  12.5000        33
  12.5500        31
  12.6000        36
  12.6500        29
  12.7000        41
  12.7500        35
  12.8000        27
  12.8500        32
  12.9000        37
  12.9500        37
  13.0000        39
  13.0500        32
  13.1000        37
  13.1500        30
  13.2000        30
  13.2500        37
  13.3000        31
  13.3500        37
  13.4000        29
  13.4500        32
  13.5000        29
  13.5500        40
  13.6000        24
  13.6500        40
  13.7000        38
  13.7500        32
  13.8000        28
  13.8500        30
  13.9000        32
  13.9500        33
  14.0000        25
  14.0500        32
  14.1000        32
  14.1500        26
  14.2000        32
  14.2500        35
  14.3000        41
  14.3500        28
  14.4000        34
  14.4500        28
  14.5000        37
  14.5500        34
  14.6000        24
  14.6500        28
  14.7000        28
  14.7500        34
  14.8000        29
  14.8500        27
  14.9000        29
  14.9500        26
  15.0000        37
  15.0500        25
  15.1000        31
  15.1500        34
  15.2000        31
  15.2500        31
  15.3000        27
  15.3500        28
  15.4000        36
  15.4500        28
  15.5000        42
  15.5500        25
  15.6000        35
  15.6500        26
  15.7000        30
  15.7500        31
  15.8000        28
  15.8500        31
  15.9000        37
  15.9500        30
  16.0000        29
  16.0500        30
  16.1000        35
  16.1500        34
  16.2000        24
  16.2500        29
  16.3000        25
  16.3500        26
  16.4000        36
  16.4500        28
  16.5000        25
  16.5500        34
  16.6000        26
  16.6500        34
  16.7000        26
  16.7500        31
  16.8000        27
  16.8500        28
  16.9000        39
  16.9500        31
  17.0000        29
  17.0500        31
  17.1000        33
  17.1500        34
  17.2000        29
  17.2500        30
  17.3000        33
  17.3500        36
  17.4000        36
  17.4500        40
  17.5000        32
  17.5500        30
  17.6000        32
  17.6500        27
  17.7000        29
  17.7500        24
  17.8000        26
  17.8500        26
  17.9000        28
  17.9500        29
  18.0000        24
  18.0500        34
  18.1000        34
  18.1500        33
  18.2000        30
  18.2500        30
  18.3000        22
  18.3500        40
  18.4000        26
  18.4500        33
  18.5000        36
  18.5500        35
  18.6000        29
  18.6500        20
  18.7000        26
  18.7500        29
  18.8000        28
  18.8500        25
  18.9000        27
  18.9500        32
  19.0000        21
  19.0500        27
  19.1000        37
  19.1500        25
  19.2000        28
  19.2500        34
  19.3000        44
  19.3500        24
  19.4000        27
  19.4500        32
  19.5000        30
  19.5500        29
  19.6000        25
  19.6500        24
  19.7000        17
  19.7500        30
  19.8000        32
  19.8500        32
  19.9000        23
  19.9500        26
  20.0000        22
  20.0500        35
  20.1000        34
  20.1500        27
  20.2000        33
  20.2500        20
  20.3000        30
  20.3500        30
  20.4000        30
  20.4500        44
  20.5000        37
  20.5500        31
  20.6000        25
  20.6500        40
  20.7000        27
  20.7500        37
  20.8000        22
  20.8500        35
  20.9000        34
  20.9500        19
  21.0000        37
  21.0500        41
  21.1000        31
  21.1500        21
  21.2000        34
  21.2500        36
  21.3000        33
  21.3500        28
  21.4000        36
  21.4500        19
  21.5000        30
  21.5500        16
  21.6000        32
  21.6500        29
  21.7000        33
  21.7500        22
  21.8000        28
  21.8500        35
  21.9000        26
  21.9500        34
  22.0000        27
  22.0500        32
  22.1000        32
  22.1500        32
  22.2000        38
  22.2500        28
  22.3000        28
  22.3500        31
  22.4000        36
  22.4500        22
  22.5000        18
  22.5500        24
  22.6000        35
  22.6500        30
  22.7000        32
  22.7500        37
  22.8000        31
  22.8500        26
  22.9000        30
  22.9500        27
  23.0000        34
  23.0500        25
  23.1000        30
  23.1500        23
  23.2000        26
  23.2500        28
  23.3000        24
  23.3500        22
  23.4000        35
  23.4500        23
  23.5000        21
  23.5500        36
  23.6000        20
  23.6500        40
  23.7000        16
  23.7500        30
  23.8000        33
  23.8500        20
  23.9000        31
  23.9500        18
  24.0000        30
  24.0500        28
  24.1000        28
  24.1500        26
  24.2000        23
  24.2500        29
  24.3000        24
  24.3500        33
  24.4000        30
  24.4500        29
  24.5000        27
  24.5500        30
  24.6000        30
  24.6500        23
  24.7000        32
  24.7500        33
  24.8000        23
  24.8500        26
  24.9000        24
  24.9500        31
  25.0000        32
  25.0500        29
  25.1000        27
  25.1500        26
  25.2000        28
  25.2500        30
  25.3000        22
  25.3500        29
  25.4000        22
  25.4500        26
  25.5000        29
  25.5500        30
  25.6000        28
  25.6500        44
  25.7000        31
  25.7500        22
  25.8000        30
  25.8500        24
  25.9000        19
  25.9500        32
  26.0000        28
  26.0500        26
  26.1000        27
  26.1500        28
  26.2000        27
  26.2500        22
  26.3000        23
  26.3500        22
  26.4000        24
  26.4500        23
  26.5000        30
  26.5500        19
  26.6000        21
  26.6500        26
  26.7000        24
  26.7500        28
  26.8000        37
  26.8500        23
  26.9000        29
  26.9500        30
  27.0000        27
  27.0500        24
  27.1000        27
  27.1500        28
  27.2000        22
  27.2500        24
  27.3000        36
  27.3500        33
  27.4000        35
  27.4500        22
  27.5000        36
  27.5500        27
  27.6000        23
  27.6500        27
  27.7000        32
  27.7500        33
  27.8000        36
  27.8500        29
  27.9000        24
  27.9500        26
  28.0000        35
  28.0500        22
  28.1000        33
  28.1500        27
  28.2000        24
  28.2500        24
  28.3000        35
  28.3500        28
  28.4000        25
  28.4500        17
  28.5000        28
  28.5500        29
  28.6000        30
  28.6500        24
  28.7000        28
  28.7500        24
  28.8000        26
  28.8500        37
  28.9000        22
  28.9500        25
  29.0000        23
  29.0500        39
  29.1000        23
  29.1500        32
  29.2000        24
  29.2500        26
  29.3000        30
  29.3500        30
  29.4000        30
  29.4500        28
  29.5000        30
  29.5500        28
  29.6000        33
  29.6500        32
  29.7000        31
  29.7500        24
  29.8000        24
  29.8500        34
  29.9000        27
  29.9500        19
  30.0000        33
  30.0500        22
  30.1000        29
  30.1500        25
  30.2000        32
  30.2500        23
  30.3000        30
  30.3500        33
  30.4000        28
  30.4500        29
  30.5000        39
  30.5500        33
  30.6000        24
  30.6500        27
  30.7000        29
  30.7500        25
  30.8000        31
  30.8500        32
  30.9000        34
  30.9500        36
  31.0000        32
  31.0500        25
  31.1000        19
  31.1500        25
  31.2000        27
  31.2500        11
  31.3000        21
  31.3500        36
  31.4000        29
  31.4500        30
  31.5000        26
  31.5500        36
  31.6000        25
  31.6500        40
  31.7000        28
  31.7500        32
  31.8000        30
  31.8500        27
  31.9000        32
  31.9500        34
  32.0000        32
  32.0500        28
  32.1000        26
  32.1500        25
  32.2000        28
  32.2500        32
  32.3000        30
  32.3500        31
  32.4000        32
  32.4500        25
  32.5000        30
  32.5500        22
  32.6000        26
  32.6500        17
  32.7000        21
  32.7500        26
  32.8000        23
  32.8500        22
  32.9000        27
  32.9500        18
  33.0000        32
  33.0500        29
  33.1000        27
  33.1500        23
  33.2000        37
  33.2500        19
  33.3000        25
  33.3500        35
  33.4000        23
  33.4500        24
  33.5000        25
  33.5500        22
  33.6000        30
  33.6500        20
  33.7000        17
  33.7500        32
  33.8000        33
  33.8500        24
  33.9000        18
  33.9500        27
  34.0000        26
  34.0500        22
  34.1000        29
  34.1500        28
  34.2000        17
  34.2500        31
  34.3000        20
  34.3500        25
  34.4000        19
  34.4500        21
  34.5000        22
  34.5500        41
  34.6000        25
  34.6500        23
  34.7000        35
  34.7500        24
  34.8000        26
  34.8500        33
  34.9000        28
  34.9500        24
  35.0000        42
  35.0500        26
  35.1000        22
  35.1500        27
  35.2000        34
  35.2500        29
  35.3000        22
  35.3500        28
  35.4000        28
  35.4500        33
  35.5000        28
  35.5500        31
  35.6000        30
  35.6500        23
  35.7000        30
  35.7500        24
  35.8000        23
  35.8500        38
  35.9000        29
  35.9500        37
  36.0000        34
  36.0500        27
  36.1000        27
  36.1500        28
  36.2000        26
  36.2500        24
  36.3000        16
  36.3500        36
  36.4000        38
  36.4500        30
  36.5000        33
  36.5500        27
  36.6000        41
  36.6500        33
  36.7000        23
  36.7500        31
  36.8000        28
  36.8500        24
  36.9000        18
  36.9500        27
  37.0000        32
  37.0500        32
  37.1000        20
  37.1500        28
  37.2000        21
  37.2500        26
  37.3000        31
  37.3500        32
  37.4000        31
  37.4500        29
  37.5000        23
  37.5500        31
  37.6000        27
  37.6500        26
  37.7000        27
  37.7500        31
  37.8000        28
  37.8500        35
  37.9000        37
  37.9500        24
  38.0000        19
  38.0500        29
  38.1000        39
  38.1500        37
  38.2000        33
  38.2500        34
  38.3000        21
  38.3500        30
  38.4000        29
  38.4500        31
  38.5000        21
  38.5500        24
  38.6000        28
  38.6500        32
  38.7000        26
  38.7500        25
  38.8000        37
  38.8500        29
  38.9000        23
  38.9500        26
  39.0000        24
  39.0500        26
  39.1000        32
  39.1500        28
  39.2000        33
  39.2500        19
  39.3000        29
  39.3500        28
  39.4000        32
  39.4500        24
  39.5000        33
  39.5500        19
  39.6000        23
  39.6500        26
  39.7000        26
  39.7500        26
  39.8000        23
  39.8500        34
  39.9000        29
  39.9500        32
  40.0000        28
  40.0500        17
  40.1000        35
  40.1500        28
  40.2000        24
  40.2500        34
  40.3000        29
  40.3500        36
  40.4000        21
  40.4500        35
  40.5000        34
  40.5500        35
  40.6000        23
  40.6500        25
  40.7000        30
  40.7500        29
  40.8000        29
  40.8500        20
  40.9000        29
  40.9500        17
  41.0000        36
  41.0500        34
  41.1000        32
  41.1500        25
  41.2000        31
  41.2500        35
  41.3000        41
  41.3500        34
  41.4000        29
  41.4500        33
  41.5000        43
  41.5500        25
  41.6000        32
  41.6500        24
  41.7000        29
  41.7500        28
  41.8000        39
  41.8500        32
  41.9000        31
  41.9500        28
  42.0000        43
  42.0500        19
  42.1000        44
  42.1500        44
  42.2000        29
  42.2500        32
  42.3000        35
  42.3500        30
  42.4000        34
  42.4500        38
  42.5000        34
  42.5500        34
  42.6000        24
  42.6500        30
  42.7000        32
  42.7500        42
  42.8000        29
  42.8500        40
  42.9000        34
  42.9500        31
  43.0000        50
  43.0500        40
  43.1000        35
  43.1500        40
  43.2000        38
  43.2500        52
  43.3000        31
  43.3500        44
  43.4000        52
  43.4500        46
  43.5000        63
  43.5500        44
  43.6000        66
  43.6500        59
  43.7000        74
  43.7500        65
  43.8000        56
  43.8500        67
  43.9000        74
  43.9500        91
  44.0000       130
  44.0500       131
  44.1000       146
  44.1500       269
  44.2000       368
  44.2500       598
  44.3000       979
  44.3500      1571
  44.4000      2095
  44.4500      2524
  44.5000      2514
  44.5500      2196
  44.6000      1598
  44.6500      1100
  44.7000       755
  44.7500       426
  44.8000       241
  44.8500       198
  44.9000       115
  44.9500        96
  45.0000       100
  45.0500        66
  45.1000        55
  45.1500        64
  45.2000        47
  45.2500        60
  45.3000        53
  45.3500        49
  45.4000        45
  45.4500        30
  45.5000        43
  45.5500        31
  45.6000        31
  45.6500        38
  45.7000        34
  45.7500        32
  45.8000        36
  45.8500        28
  45.9000        32
  45.9500        43
  46.0000        37
  46.0500        43
  46.1000        37
  46.1500        37
  46.2000        37
  46.2500        32
  46.3000        33
  46.3500        34
  46.4000        29
  46.4500        39
  46.5000        28
  46.5500        37
  46.6000        29
  46.6500        35
  46.7000        34
  46.7500        39
  46.8000        27
  46.8500        28
  46.9000        34
  46.9500        28
  47.0000        26
  47.0500        37
  47.1000        38
  47.1500        24
  47.2000        29
  47.2500        34
  47.3000        43
  47.3500        37
  47.4000        24
  47.4500        22
  47.5000        32
  47.5500        19
  47.6000        29
  47.6500        34
  47.7000        24
  47.7500        34
  47.8000        26
  47.8500        36
  47.9000        31
  47.9500        34
  48.0000        23
  48.0500        37
  48.1000        26
  48.1500        30
  48.2000        29
  48.2500        31
  48.3000        30
  48.3500        37
  48.4000        30
  48.4500        30
  48.5000        32
  48.5500        29
  48.6000        30
  48.6500        26
  48.7000        38
  48.7500        37
  48.8000        28
  48.8500        32
  48.9000        30
  48.9500        29
  49.0000        24
  49.0500        21
  49.1000        29
  49.1500        33
  49.2000        29
  49.2500        35
  49.3000        40
  49.3500        34
  49.4000        32
  49.4500        36
  49.5000        37
  49.5500        31
  49.6000        30
  49.6500        26
  49.7000        38
  49.7500        25
  49.8000        26
  49.8500        33
  49.9000        35
  49.9500        41
  50.0000        29
  50.0500        28
  50.1000        36
  50.1500        38
  50.2000        32
  50.2500        35
  50.3000        25
  50.3500        35
  50.4000        37
  50.4500        36
  50.5000        30
  50.5500        31
  50.6000        30
  50.6500        41
  50.7000        37
  50.7500        35
  50.8000        29
  50.8500        56
  50.9000        46
  50.9500        52
  51.0000        55
  51.0500        36
  51.1000        49
  51.1500        61
  51.2000        61
  51.2500        77
  51.3000        72
  51.3500        91
  51.4000       123
  51.4500       130
  51.5000       185
  51.5500       273
  51.6000       357
  51.6500       480
  51.7000       590
  51.7500       824
  51.8000       905
  51.8500       846
  51.9000       813
  51.9500       649
  52.0000       521
  52.0500       385
  52.1000       279
  52.1500       210
  52.2000       152
  52.2500       119
  52.3000        72
  52.3500        79
  52.4000        80
  52.4500        74
  52.5000        60
  52.5500        57
  52.6000        47
  52.6500        35
  52.7000        36
  52.7500        37
  52.8000        31
  52.8500        44
  52.9000        31
  52.9500        34
  53.0000        28
  53.0500        29
  53.1000        32
  53.1500        43
  53.2000        32
  53.2500        33
  53.3000        31
  53.3500        39
  53.4000        33
  53.4500        42
  53.5000        25
  53.5500        28
  53.6000        39
  53.6500        32
  53.7000        39
  53.7500        26
  53.8000        33
  53.8500        26
  53.9000        34
  53.9500        22
  54.0000        42
  54.0500        34
  54.1000        29
  54.1500        34
  54.2000        30
  54.2500        25
  54.3000        42
  54.3500        28
  54.4000        33
  54.4500        27
  54.5000        22
  54.5500        30
  54.6000        36
  54.6500        37
  54.7000        21
  54.7500        19
  54.8000        28
  54.8500        29
  54.9000        24
  54.9500        28
  55.0000        34
  55.0500        25
  55.1000        22
  55.1500        34
  55.2000        27
  55.2500        26
  55.3000        32
  55.3500        28
  55.4000        19
  55.4500        34
  55.5000        30
  55.5500        31
  55.6000        31
  55.6500        16
  55.7000        18
  55.7500        30
  55.8000        36
  55.8500        29
  55.9000        36
  55.9500        21
  56.0000        31
  56.0500        18
  56.1000        26
  56.1500        30
  56.2000        27
  56.2500        25
  56.3000        30
  56.3500        35
  56.4000        35
  56.4500        25
  56.5000        33
  56.5500        38
  56.6000        25
  56.6500        30
  56.7000        30
  56.7500        29
  56.8000        17
  56.8500        26
  56.9000        24
  56.9500        30
  57.0000        27
  57.0500        26
  57.1000        25
  57.1500        22
  57.2000        31
  57.2500        32
  57.3000        23
  57.3500        27
  57.4000        34
  57.4500        30
  57.5000        22
  57.5500        33
  57.6000        29
  57.6500        43
  57.7000        22
  57.7500        24
  57.8000        21
  57.8500        23
  57.9000        31
  57.9500        26
  58.0000        31
  58.0500        31
  58.1000        31
  58.1500        25
  58.2000        26
  58.2500        16
  58.3000        30
  58.3500        24
  58.4000        26
  58.4500        26
  58.5000        23
  58.5500        29
  58.6000        26
  58.6500        24
  58.7000        35
  58.7500        26
  58.8000        36
  58.8500        18
  58.9000        26
  58.9500        27
  59.0000        31
  59.0500        19
  59.1000        27
  59.1500        29
  59.2000        23
  59.2500        27
  59.3000        25
  59.3500        22
  59.4000        14
  59.4500        31
  59.5000        32
  59.5500        24
  59.6000        25
  59.6500        22
  59.7000        27
  59.7500        26
  59.8000        33
  59.8500        25
  59.9000        31
  59.9500        29
  60.0000        25
  60.0500        27
  60.1000        29
  60.1500        23
  60.2000        27
  60.2500        26
  60.3000        21
  60.3500        32
  60.4000        33
  60.4500        30
  60.5000        34
  60.5500        24
  60.6000        29
  60.6500        33
  60.7000        24
  60.7500        30
  60.8000        25
  60.8500        16
  60.9000        20
  60.9500        27
  61.0000        33
  61.0500        27
  61.1000        26
  61.1500        18
  61.2000        18
  61.2500        22
  61.3000        32
  61.3500        21
  61.4000        26
  61.4500        28
  61.5000        28
  61.5500        23
  61.6000        25
  61.6500        35
  61.7000        29
  61.7500        39
  61.8000        22
  61.8500        28
  61.9000        24
  61.9500        29
  62.0000        29
  62.0500        34
  62.1000        30
  62.1500        32
  62.2000        27
  62.2500        22
  62.3000        12
  62.3500        29
  62.4000        30
  62.4500        31
  62.5000        34
  62.5500        17
  62.6000        28
  62.6500        27
  62.7000        29
  62.7500        29
  62.8000        25
  62.8500        31
  62.9000        33
  62.9500        29
  63.0000        36
  63.0500        30
  63.1000        30
  63.1500        18
  63.2000        21
  63.2500        30
  63.3000        31
  63.3500        36
  63.4000        42
  63.4500        27
  63.5000        36
  63.5500        19
  63.6000        27
  63.6500        38
  63.7000        37
  63.7500        34
  63.8000        32
  63.8500        19
  63.9000        28
  63.9500        35
  64.0000        31
  64.0500        28
  64.1000        23
  64.1500        21
  64.2000        26
  64.2500        28
  64.3000        36
  64.3500        26
  64.4000        20
  64.4500        22
  64.5000        28
  64.5500        28
  64.6000        27
  64.6500        29
  64.7000        28
  64.7500        25
  64.8000        21
  64.8500        27
  64.9000        25
  64.9500        31
  65.0000        30
  65.0500        22
  65.1000        37
  65.1500        32
  65.2000        25
  65.2500        30
  65.3000        22
  65.3500        28
  65.4000        24
  65.4500        29
  65.5000        36
  65.5500        28
  65.6000        26
  65.6500        32
  65.7000        21
  65.7500        32
  65.8000        28
  65.8500        26
  65.9000        30
  65.9500        21
  66.0000        29
  66.0500        29
  66.1000        37
  66.1500        19
  66.2000        31
  66.2500        30
  66.3000        23
  66.3500        21
  66.4000        29
  66.4500        25
  66.5000        21
  66.5500        22
  66.6000        24
  66.6500        26
  66.7000        27
  66.7500        20
  66.8000        33
  66.8500        18
  66.9000        28
  66.9500        30
  67.0000        27
  67.0500        20
  67.1000        25
  67.1500        24
  67.2000        27
  67.2500        26
  67.3000        29
  67.3500        25
  67.4000        24
  67.4500        25
  67.5000        28
  67.5500        35
  67.6000        32
  67.6500        40
  67.7000        30
  67.7500        25
  67.8000        26
  67.8500        23
  67.9000        30
  67.9500        26
  68.0000        27
  68.0500        16
  68.1000        24
  68.1500        28
  68.2000        38
  68.2500        25
  68.3000        19
  68.3500        24
  68.4000        24
  68.4500        32
  68.5000        24
  68.5500        33
  68.6000        27
  68.6500        34
  68.7000        21
  68.7500        29
  68.8000        14
  68.8500        23
  68.9000        23
  68.9500        36
  69.0000        27
  69.0500        20
  69.1000        24
  69.1500        24
  69.2000        19
  69.2500        24
  69.3000        25
  69.3500        34
  69.4000        38
  69.4500        28
  69.5000        31
  69.5500        28
  69.6000        17
  69.6500        21
  69.7000        20
  69.7500        20
  69.8000        23
  69.8500        26
  69.9000        30
  69.9500        32
  70.0000        17
  70.0500        25
  70.1000        25
  70.1500        33
  70.2000        25
  70.2500        21
  70.3000        27
  70.3500        34
  70.4000        22
  70.4500        46
  70.5000        27
  70.5500        25
  70.6000        23
  70.6500        32
  70.7000        30
  70.7500        24
  70.8000        28
  70.8500        37
  70.9000        32
  70.9500        31
  71.0000        30
  71.0500        34
  71.1000        29
  71.1500        33
  71.2000        19
  71.2500        27
  71.3000        19
  71.3500        31
  71.4000        30
  71.4500        32
  71.5000        36
  71.5500        35
  71.6000        22
  71.6500        38
  71.7000        32
  71.7500        21
  71.8000        24
  71.8500        24
  71.9000        19
  71.9500        16
  72.0000        23
  72.0500        23
  72.1000        30
  72.1500        29
  72.2000        38
  72.2500        37
  72.3000        20
  72.3500        23
  72.4000        20
  72.4500        29
  72.5000        28
  72.5500        26
  72.6000        32
  72.6500        33
  72.7000        21
  72.7500        30
  72.8000        25
  72.8500        38
  72.9000        21
  72.9500        31
  73.0000        37
  73.0500        25
  73.1000        21
  73.1500        27
  73.2000        18
  73.2500        31
  73.3000        28
  73.3500        18
  73.4000        23
  73.4500        33
  73.5000        23
  73.5500        29
  73.6000        27
  73.6500        19
  73.7000        20
  73.7500        26
  73.8000        37
  73.8500        30
  73.9000        25
  73.9500        22
  74.0000        20
  74.0500        28
  74.1000        26
  74.1500        20
  74.2000        31
  74.2500        25
  74.3000        33
  74.3500        33
  74.4000        38
  74.4500        33
  74.5000        35
  74.5500        33
  74.6000        30
  74.6500        32
  74.7000        35
  74.7500        29
  74.8000        28
  74.8500        17
  74.9000        32
  74.9500        40
  75.0000        43
  75.0500        27
  75.1000        31
  75.1500        34
  75.2000        31
  75.2500        46
  75.3000        36
  75.3500        39
  75.4000        35
  75.4500        28
  75.5000        36
  75.5500        43
  75.6000        44
  75.6500        41
  75.7000        54
  75.7500        49
  75.8000        50
  75.8500        62
  75.9000        68
  75.9500        99
  76.0000        93
  76.0500       113
  76.1000       128
  76.1500       185
  76.2000       264
  76.2500       312
  76.3000       359
  76.3500       351
  76.4000       420
  76.4500       358
  76.5000       319
  76.5500       272
  76.6000       245
  76.6500       205
  76.7000       173
  76.7500       112
  76.8000       102
  76.8500        78
  76.9000        72
  76.9500        68
  77.0000        49
  77.0500        39
  77.1000        54
  77.1500        36
  77.2000        52
  77.2500        35
  77.3000        44
  77.3500        29
  77.4000        31
  77.4500        41
  77.5000        31
  77.5500        40
  77.6000        28
  77.6500        15
  77.7000        34
  77.7500        24
  77.8000        38
  77.8500        32
  77.9000        32
  77.9500        26
  78.0000        28
  78.0500        32
  78.1000        20
  78.1500        31
  78.2000        30
  78.2500        23
  78.3000        23
  78.3500        28
  78.4000        27
  78.4500        26
  78.5000        24
  78.5500        25
  78.6000        31
  78.6500        32
  78.7000        35
  78.7500        43
  78.8000        26
  78.8500        28
  78.9000        31
  78.9500        37
  79.0000        25
  79.0500        31
  79.1000        31
  79.1500        34
  79.2000        24
  79.2500        29
  79.3000        28
  79.3500        23
  79.4000        31
  79.4500        31
  79.5000        25
  79.5500        39
  79.6000        34
  79.6500        34
  79.7000        42
  79.7500        35
  79.8000        32
  79.8500        29
  79.9000        24
  79.9500        24
  80.0000        36
  80.0500        22
  80.1000        23
  80.1500        30
  80.2000        29
  80.2500        25
  80.3000        24
  80.3500        25
  80.4000        25
  80.4500        30
  80.5000        22
  80.5500        22
  80.6000        27
  80.6500        23
  80.7000        29
  80.7500        34
  80.8000        25
  80.8500        29
  80.9000        28
  80.9500        33
  81.0000        28
  81.0500        23
  81.1000        32
  81.1500        25
  81.2000        28
  81.2500        22
  81.3000        15
  81.3500        28
  81.4000        24
  81.4500        35
  81.5000        23
  81.5500        32
  81.6000        39
  81.6500        29
  81.7000        28
  81.7500        31
  81.8000        31
  81.8500        34
  81.9000        23
  81.9500        29
  82.0000        17
  82.0500        25
  82.1000        20
  82.1500        40
  82.2000        33
  82.2500        23
  82.3000        21
  82.3500        25
  82.4000        24
  82.4500        26
  82.5000        34
  82.5500        34
  82.6000        25
  82.6500        30
  82.7000        30
  82.7500        25
  82.8000        29
  82.8500        33
  82.9000        28
  82.9500        27
  83.0000        19
  83.0500        20
  83.1000        28
  83.1500        24
  83.2000        30
  83.2500        23
  83.3000        25
  83.3500        28
  83.4000        24
  83.4500        28
  83.5000        28
  83.5500        33
  83.6000        25
  83.6500        35
  83.7000        27
  83.7500        25
  83.8000        28
  83.8500        41
  83.9000        35
  83.9500        28
  84.0000        29
  84.0500        32
  84.1000        32
  84.1500        18
  84.2000        24
  84.2500        31
  84.3000        22
  84.3500        34
  84.4000        37
  84.4500        28
  84.5000        28
  84.5500        24
  84.6000        21
  84.6500        24
  84.7000        38
  84.7500        20
  84.8000        38
  84.8500        27
  84.9000        24
  84.9500        34
  85.0000        21
  85.0500        34
  85.1000        27
  85.1500        30
  85.2000        30
  85.2500        27
  85.3000        28
  85.3500        36
  85.4000        26
  85.4500        37
  85.5000        23
  85.5500        24
  85.6000        21
  85.6500        34
  85.7000        27
  85.7500        30
  85.8000        27
  85.8500        25
  85.9000        33
  85.9500        28
  86.0000        35
  86.0500        33
  86.1000        24
  86.1500        23
  86.2000        27
  86.2500        25
  86.3000        23
  86.3500        26
  86.4000        34
  86.4500        23
  86.5000        20
  86.5500        22
  86.6000        27
  86.6500        38
  86.7000        31
  86.7500        24
  86.8000        23
  86.8500        28
  86.9000        31
  86.9500        31
  87.0000        32
  87.0500        26
  87.1000        33
  87.1500        27
  87.2000        30
  87.2500        36
  87.3000        21
  87.3500        33
  87.4000        25
  87.4500        23
  87.5000        25
  87.5500        28
  87.6000        25
  87.6500        25
  87.7000        27
  87.7500        32
  87.8000        32
  87.8500        21
  87.9000        28
  87.9500        31
  88.0000        34
  88.0500        29
  88.1000        27
  88.1500        30
  88.2000        29
  88.2500        26
  88.3000        23
  88.3500        26
  88.4000        28
  88.4500        23
  88.5000        27
  88.5500        33
  88.6000        28
  88.6500        21
  88.7000        26
  88.7500        40
  88.8000        26
  88.8500        22
  88.9000        28
  88.9500        24
  89.0000        21
  89.0500        28
  89.1000        26
  89.1500        29
  89.2000        30
  89.2500        23
  89.3000        27
  89.3500        36
  89.4000        36
  89.4500        33
  89.5000        31
  89.5500        34
  89.6000        27
  89.6500        32
  89.7000        36
  89.7500        26
  89.8000        35
  89.8500        31
  89.9000        24
  89.9500        33
  90.0000        25
  90.0500        28
  90.1000        30
  90.1500        23
  90.2000        27
  90.2500        37
  90.3000        27
  90.3500        30
  90.4000        37
  90.4500        23
  90.5000        32
  90.5500        29
  90.6000        27
  90.6500        36
  90.7000        32
  90.7500        31
  90.8000        33
  90.8500        46
  90.9000        33
  90.9500        30
  91.0000        36
  91.0500        34
  91.1000        27
  91.1500        32
  91.2000        29
  91.2500        32
  91.3000        44
  91.3500        35
  91.4000        38
  91.4500        37
  91.5000        35
  91.5500        31
  91.6000        32
  91.6500        34
  91.7000        36
  91.7500        35
  91.8000        25
  91.8500        37
  91.9000        38
  91.9500        36
  92.0000        42
  92.0500        45
  92.1000        45
  92.1500        47
  92.2000        56
  92.2500        55
  92.3000        44
  92.3500        65
  92.4000        72
  92.4500       108
  92.5000        82
  92.5500       109
  92.6000       128
  92.6500       153
  92.7000       208
  92.7500       226
  92.8000       278
  92.8500       264
  92.9000       314
  92.9500       299
  93.0000       266
  93.0500       290
  93.1000       225
  93.1500       218
  93.2000       211
  93.2500       178
  93.3000       191
  93.3500       153
  93.4000       121
  93.4500        95
  93.5000        81
  93.5500        69
  93.6000        69
  93.6500        70
  93.7000        65
  93.7500        43
  93.8000        48
  93.8500        43
  93.9000        36
  93.9500        48
  94.0000        45
  94.0500        38
  94.1000        34
  94.1500        41
  94.2000        35
  94.2500        35
  94.3000        32
  94.3500        40
  94.4000        28
  94.4500        28
  94.5000        32
  94.5500        42
  94.6000        31
  94.6500        41
  94.7000        27
  94.7500        38
  94.8000        36
  94.8500        35
  94.9000        29
  94.9500        35
  95.0000        30
  95.0500        21
  95.1000        30
  95.1500        34
  95.2000        31
  95.2500        32
  95.3000        24
  95.3500        26
  95.4000        28
  95.4500        27
  95.5000        32
  95.5500        30
  95.6000        35
  95.6500        29
  95.7000        26
  95.7500        40
  95.8000        26
  95.8500        38
  95.9000        22
  95.9500        20
  96.0000        32
  96.0500        33
  96.1000        28
  96.1500        25
  96.2000        24
  96.2500        24
  96.3000        31
  96.3500        19
  96.4000        33
  96.4500        31
  96.5000        25
  96.5500        30
  96.6000        26
  96.6500        29
  96.7000        30
  96.7500        22
  96.8000        22
  96.8500        33
  96.9000        24
  96.9500        27
  97.0000        26
  97.0500        33
  97.1000        34
  97.1500        21
  97.2000        31
  97.2500        32
  97.3000        24
  97.3500        30
  97.4000        24
  97.4500        32
  97.5000        25
  97.5500        31
  97.6000        26
  97.6500        34
  97.7000        37
  97.7500        47
  97.8000        38
  97.8500        38
  97.9000        47
  97.9500        42
  98.0000        46
  98.0500        65
  98.1000        69
  98.1500        52
  98.2000        75
  98.2500        92
  98.3000        82
  98.3500       102
  98.4000       115
  98.4500       124
  98.5000       105
  98.5500        88
  98.6000        91
  98.6500       100
  98.7000        81
  98.7500        81
  98.8000        71
  98.8500        68
  98.9000        60
  98.9500        37
  99.0000        43
  99.0500        30
  99.1000        38
  99.1500        40
  99.2000        33
  99.2500        30
  99.3000        28
  99.3500        32
  99.4000        29
  99.4500        29
  99.5000        32
  99.5500        23
  99.6000        30
  99.6500        34
  99.7000        20
  99.7500        24
  99.8000        22
  99.8500        32
  99.9000        27
  99.9500        38
 100.0000        26
 100.0500        34
 100.1000        23
 100.1500        22
 100.2000        25
 100.2500        26
 100.3000        31
 100.3500        40
 100.4000        24
 100.4500        35
 100.5000        20
 100.5500        22
 100.6000        30
 100.6500        18
 100.7000        29
 100.7500        34
 100.8000        39
 100.8500        26
 100.9000        37
 100.9500        30
 101.0000        23
 101.0500        34
 101.1000        18
 101.1500        31
 101.2000        22
 101.2500        29
 101.3000        21
 101.3500        30
 101.4000        24
 101.4500        26
 101.5000        28
 101.5500        25
 101.6000        35
 101.6500        20
 101.7000        23
 101.7500        34
 101.8000        19
 101.8500        36
 101.9000        27
 101.9500        25
 102.0000        36
 102.0500        33
 102.1000        34
 102.1500        32
 102.2000        36
 102.2500        24
 102.3000        29
 102.3500        31
 102.4000        27
 102.4500        18
 102.5000        29
 102.5500        30
 102.6000        19
 102.6500        35
 102.7000        19
 102.7500        28
 102.8000        25
 102.8500        33
 102.9000        22
 102.9500        24
 103.0000        26
 103.0500        32
 103.1000        24
 103.1500        32
 103.2000        26
 103.2500        24
 103.3000        28
 103.3500        31
 103.4000        25
 103.4500        24
 103.5000        14
 103.5500        30
 103.6000        32
 103.6500        34
 103.7000        20
 103.7500        25
 103.8000        27
 103.8500        38
 103.9000        23
 103.9500        27
 104.0000        28
 104.0500        18
 104.1000        23
 104.1500        30
 104.2000        31
 104.2500        30
 104.3000        29
 104.3500        28
 104.4000        30
 104.4500        23
 104.5000        27
 104.5500        21
 104.6000        22
 104.6500        26
 104.7000        23
 104.7500        44
 104.8000        30
 104.8500        23
 104.9000        32
 104.9500        26
 105.0000        26
 105.0500        32
 105.1000        32
 105.1500        35
 105.2000        24
 105.2500        26
 105.3000        31
 105.3500        33
 105.4000        25
 105.4500        20
 105.5000        21
 105.5500        21
 105.6000        29
 105.6500        32
 105.7000        26
 105.7500        22
 105.8000        29
 105.8500        24
 105.9000        31
 105.9500        30
 106.0000        33
 106.0500        23
 106.1000        24
 106.1500        20
 106.2000        31
 106.2500        31
 106.3000        21
 106.3500        25
 106.4000        20
 106.4500        25
 106.5000        23
 106.5500        21
 106.6000        18
 106.6500        15
 106.7000        23
 106.7500        26
 106.8000        20
 106.8500        33
 106.9000        22
 106.9500        43
 107.0000        34
 107.0500        29
 107.1000        24
 107.1500        31
 107.2000        36
 107.2500        36
 107.3000        23
 107.3500        32
 107.4000        35
 107.4500        11
 107.5000        25
 107.5500        36
 107.6000        29
 107.6500        24
 107.7000        34
 107.7500        29
 107.8000        20
 107.8500        30
 107.9000        27
 107.9500        34
 108.0000        37
 108.0500        23
 108.1000        34
 108.1500        22
 108.2000        27
 108.2500        25
 108.3000        28
 108.3500        35
 108.4000        18
 108.4500        15
 108.5000        30
 108.5500        30
 108.6000        23
 108.6500        23
 108.7000        23
 108.7500        24
 108.8000        23
 108.8500        20
 108.9000        30
 108.9500        24
 109.0000        28
 109.0500        31
 109.1000        25
 109.1500        22
 109.2000        34
 109.2500        26
 109.3000        26
 109.3500        28
 109.4000        19
 109.4500        35
 109.5000        25
 109.5500        26
 109.6000        26
 109.6500        26
 109.7000        30
 109.7500        25
 109.8000        27
 109.8500        23
 109.9000        28
 109.9500        29
 110.0000        21
