  10.0000        13
  10.0500        14
  10.1000        26
  10.1500        19
  10.2000        21
  10.2500        20
  10.3000        12
  10.3500        26
  10.4000        20
  10.4500        22
  10.5000        13
  10.5500        27
  10.6000        20
  10.6500        15
  10.7000        18
  10.7500        23
  10.8000        16
  10.8500        17
  10.9000        29
  10.9500        21
  11.0000        19
  11.0500         8
  11.1000        16
  11.1500        17
  11.2000        23
  11.2500        13
  11.3000        20
  11.3500        19
  11.4000        22
  11.4500         9
  11.5000        19
  11.5500         8
  11.6000        11
  11.6500        20
  11.7000        19
  11.7500        22
  11.8000        17
  11.8500        14
  11.9000        12
  11.9500        18
  12.0000        17
  12.0500        22
  12.1000        13
  12.1500        14
  12.2000        20
  12.2500        19
  12.3000        26
  12.3500        18
  12.4000        15
  12.4500        17
  12.5000        22
  12.5500        15
  12.6000        16
  12.6500        22
  12.7000        20
  12.7500        15
  12.8000        20
  12.8500        10
  12.9000        20
  12.9500        16
  13.0000        10
  13.0500        10
  13.1000        13
  13.1500        23
  13.2000        16
  13.2500        11
  13.3000        16
  13.3500        15
  13.4000        13
  13.4500         9
  13.5000        18
  13.5500        12
  13.6000        12
  13.6500        14
  13.7000        13
  13.7500         9
  13.8000        14
  13.8500        16
  13.9000        12
  13.9500         9
  14.0000        14
  14.0500        16
  14.1000        16
  14.1500        10
  14.2000        18
  14.2500        11
  14.3000        21
  14.3500        16
  14.4000        13
  14.4500        12
  14.5000        15
  14.5500         8
  14.6000        10
  14.6500        13
  14.7000         9
  14.7500        14
  14.8000        16
  14.8500        23
  14.9000        17
  14.9500        13
  15.0000        13
  15.0500        14
  15.1000        23
  15.1500        15
  15.2000        16
  15.2500        15
  15.3000         6
  15.3500        13
  15.4000        15
  15.4500        21
  15.5000        12
  15.5500        17
  15.6000        17
  15.6500        17
  15.7000        19
  15.7500        18
  15.8000        15
  15.8500        12
  15.9000        14
  15.9500        11
  16.0000        15
  16.0500        10
  16.1000        11
  16.1500         9
  16.2000        18
  16.2500         9
  16.3000        14
  16.3500         9
  16.4000        12
  16.4500        16
  16.5000        13
  16.5500        18
  16.6000        15
  16.6500        16
  16.7000         7
  16.7500        13
  16.8000        16
  16.8500        18
  16.9000        14
  16.9500        18
  17.0000        13
  17.0500        16
  17.1000        14
  17.1500        18
  17.2000        16
  17.2500        12
  17.3000         5
  17.3500        15
  17.4000        15
  17.4500        20
  17.5000        10
  17.5500        10
  17.6000        10
  17.6500        20
  17.7000        17
  17.7500        16
  17.8000        15
  17.8500        14
  17.9000        15
  17.9500        11
  18.0000         7
  18.0500        17
  18.1000        15
  18.1500        10
  18.2000        13
  18.2500        13
  18.3000        21
  18.3500        17
  18.4000        12
  18.4500         9
  18.5000        17
  18.5500        15
  18.6000        10
  18.6500        13
  18.7000        13
  18.7500        15
  18.8000         9
  18.8500        17
  18.9000        10
  18.9500        12
  19.0000         9
  19.0500        12
  19.1000        11
  19.1500        14
  19.2000        19
  19.2500         5
  19.3000        13
  19.3500        11
  19.4000        18
  19.4500        16
  19.5000         7
  19.5500        14
  19.6000        15
  19.6500         9
  19.7000        13
  19.7500         9
  19.8000        15
  19.8500        14
  19.9000         4
  19.9500        16
  20.0000        11
  20.0500        13
  20.1000        10
  20.1500        11
  20.2000        14
  20.2500        12
  20.3000        13
  20.3500        10
  20.4000        14
  20.4500         7
  20.5000        14
  20.5500        14
  20.6000        16
  20.6500        12
  20.7000        16
  20.7500        16
  20.8000         3
  20.8500        11
  20.9000        14
  20.9500        15
  21.0000        11
  21.0500        21
  21.1000        16
  21.1500        11
  21.2000        18
  21.2500        15
  21.3000        19
  21.3500        15
  21.4000         9
  21.4500        12
  21.5000        11
  21.5500        14
  21.6000         9
  21.6500         8
  21.7000        12
  21.7500        11
  21.8000        13
  21.8500        11
  21.9000        18
  21.9500        10
  22.0000        20
  22.0500        15
  22.1000        17
  22.1500        14
  22.2000        14
  22.2500        14
  22.3000        18
  22.3500        15
  22.4000        13
  22.4500        10
  22.5000        11
  22.5500        16
  22.6000        11
  22.6500        14
  22.7000        11
  22.7500        15
  22.8000        18
  22.8500        13
  22.9000        17
  22.9500        11
  23.0000        12
  23.0500        15
  23.1000        11
  23.1500        14
  23.2000        17
  23.2500         8
  23.3000        17
  23.3500        13
  23.4000         9
  23.4500        11
  23.5000         8
  23.5500         8
  23.6000        11
  23.6500        14
  23.7000        13
  23.7500        15
  23.8000        13
  23.8500        19
  23.9000        21
  23.9500        14
  24.0000        11
  24.0500        17
  24.1000        15
  24.1500         8
  24.2000         5
  24.2500        13
  24.3000        16
  24.3500        19
  24.4000        15
  24.4500        21
  24.5000        12
  24.5500        10
  24.6000        11
  24.6500        13
  24.7000        10
  24.7500        20
  24.8000        16
  24.8500        25
  24.9000        16
  24.9500        14
  25.0000        13
  25.0500        10
  25.1000        16
  25.1500        17
  25.2000        11
  25.2500        17
  25.3000        16
  25.3500        11
  25.4000        21
  25.4500        16
  25.5000        21
  25.5500        13
  25.6000        13
  25.6500        12
  25.7000         8
  25.7500        10
  25.8000         9
  25.8500         6
  25.9000        14
  25.9500        16
  26.0000        13
  26.0500        13
  26.1000        18
  26.1500        18
  26.2000         9
  26.2500        14
  26.3000         6
  26.3500        19
  26.4000        10
  26.4500        17
  26.5000        15
  26.5500        12
  26.6000        12
  26.6500        17
  26.7000        11
  26.7500         8
  26.8000        20
  26.8500        20
  26.9000        19
  26.9500        16
  27.0000        19
  27.0500        15
  27.1000        13
  27.1500        14
  27.2000        19
  27.2500        19
  27.3000        22
  27.3500        14
  27.4000        10
  27.4500        13
  27.5000        21
  27.5500        24
  27.6000        19
  27.6500         7
  27.7000        11
  27.7500        11
  27.8000        27
  27.8500        12
  27.9000        12
  27.9500        14
  28.0000        16
  28.0500        16
  28.1000        15
  28.1500        14
  28.2000        11
  28.2500        13
  28.3000        25
  28.3500        20
  28.4000        14
  28.4500        17
  28.5000        19
  28.5500        19
  28.6000        22
  28.6500        11
  28.7000        21
  28.7500        15
  28.8000         9
  28.8500        23
  28.9000         9
  28.9500        12
  29.0000        17
  29.0500        18
  29.1000        13
  29.1500        10
  29.2000        18
  29.2500        15
  29.3000        14
  29.3500        16
  29.4000        26
  29.4500         8
  29.5000        20
  29.5500        15
  29.6000        19
  29.6500        15
  29.7000        21
  29.7500        19
  29.8000        16
  29.8500        19
  29.9000        21
  29.9500        27
  30.0000        16
  30.0500        22
  30.1000        16
  30.1500        20
  30.2000        15
  30.2500        21
  30.3000        28
  30.3500        29
  30.4000        43
  30.4500        65
  30.5000        98
  30.5500       165
  30.6000       185
  30.6500       205
  30.7000       189
  30.7500       128
  30.8000        90
  30.8500        57
  30.9000        52
  30.9500        47
  31.0000        57
  31.0500        80
  31.1000       134
  31.1500       224
  31.2000       496
  31.2500       766
  31.3000       883
  31.3500       782
  31.4000       624
  31.4500       345
  31.5000       163
  31.5500        72
  31.6000        47
  31.6500        45
  31.7000        42
  31.7500        48
  31.8000        51
  31.8500        97
  31.9000       202
  31.9500       354
  32.0000       563
  32.0500       559
  32.1000       391
  32.1500       236
  32.2000        90
  32.2500        55
  32.3000        22
  32.3500        17
  32.4000        32
  32.4500        21
  32.5000        25
  32.5500        19
  32.6000        24
  32.6500        24
  32.7000        20
  32.7500        20
  32.8000        21
  32.8500        19
  32.9000        22
  32.9500        17
  33.0000        20
  33.0500        17
  33.1000        23
  33.1500        21
  33.2000        15
  33.2500        15
  33.3000        13
  33.3500        11
  33.4000        17
  33.4500        11
  33.5000        24
  33.5500        17
  33.6000        16
  33.6500        17
  33.7000        15
  33.7500        14
  33.8000        23
  33.8500        24
  33.9000        19
  33.9500        23
  34.0000        14
  34.0500        16
  34.1000        15
  34.1500        18
  34.2000        21
  34.2500         3
  34.3000        14
  34.3500        14
  34.4000        15
  34.4500        13
  34.5000        12
  34.5500        10
  34.6000        14
  34.6500        17
  34.7000        21
  34.7500        12
  34.8000        22
  34.8500        25
  34.9000        13
  34.9500        23
  35.0000         9
  35.0500        24
  35.1000        25
  35.1500        20
  35.2000        15
  35.2500        26
  35.3000        19
  35.3500        21
  35.4000        20
  35.4500        22
  35.5000        16
  35.5500        23
  35.6000        15
  35.6500        19
  35.7000        15
  35.7500        12
  35.8000        22
  35.8500        24
  35.9000        22
  35.9500        30
  36.0000        32
  36.0500        34
  36.1000        58
  36.1500       138
  36.2000       252
  36.2500       365
  36.3000       404
  36.3500       369
  36.4000       276
  36.4500       162
  36.5000        88
  36.5500        47
  36.6000        25
  36.6500        27
  36.7000        14
  36.7500        21
  36.8000        15
  36.8500        18
  36.9000        16
  36.9500        16
  37.0000        25
  37.0500        20
  37.1000        11
  37.1500        12
  37.2000        12
  37.2500        11
  37.3000        16
  37.3500        18
  37.4000        16
  37.4500        13
  37.5000        13
  37.5500        13
  37.6000        12
  37.6500        17
  37.7000        13
  37.7500        16
  37.8000         6
  37.8500        15
  37.9000        14
  37.9500        20
  38.0000        20
  38.0500        14
  38.1000        17
  38.1500        14
  38.2000         9
  38.2500        18
  38.3000        12
  38.3500        18
  38.4000        13
  38.4500        10
  38.5000        15
  38.5500        20
  38.6000        17
  38.6500        24
  38.7000         9
  38.7500        14
  38.8000        14
  38.8500        12
  38.9000         6
  38.9500        14
  39.0000        12
  39.0500        14
  39.1000        12
  39.1500         9
  39.2000        11
  39.2500        14
  39.3000        12
  39.3500        11
  39.4000        15
  39.4500        17
  39.5000        16
  39.5500        14
  39.6000        14
  39.6500        10
  39.7000        10
  39.7500        17
  39.8000        12
  39.8500        11
  39.9000        12
  39.9500        13
  40.0000         7
  40.0500        10
  40.1000        13
  40.1500        12
  40.2000        12
  40.2500        11
  40.3000        22
  40.3500        13
  40.4000        14
  40.4500        11
  40.5000         4
  40.5500        13
  40.6000        22
  40.6500        11
  40.7000         9
  40.7500        14
  40.8000         8
  40.8500        16
  40.9000        12
  40.9500        14
  41.0000        22
  41.0500        15
  41.1000        10
  41.1500        14
  41.2000        21
  41.2500        11
  41.3000        10
  41.3500        16
  41.4000        13
  41.4500        17
  41.5000        14
  41.5500        10
  41.6000        12
  41.6500        10
  41.7000        11
  41.7500        12
  41.8000         8
  41.8500         8
  41.9000        17
  41.9500        16
  42.0000         9
  42.0500        22
  42.1000        18
  42.1500        13
  42.2000        16
  42.2500        18
  42.3000         8
  42.3500        14
  42.4000        12
  42.4500         7
  42.5000        19
  42.5500        14
  42.6000        11
  42.6500        16
  42.7000         8
  42.7500        11
  42.8000        14
  42.8500        13
  42.9000        14
  42.9500        16
  43.0000        16
  43.0500        12
  43.1000         9
  43.1500        24
  43.2000        18
  43.2500        11
  43.3000         9
  43.3500        11
  43.4000        14
  43.4500        18
  43.5000        16
  43.5500        17
  43.6000        25
  43.6500        15
  43.7000        40
  43.7500        67
  43.8000       103
  43.8500       109
  43.9000       121
  43.9500       107
  44.0000        78
  44.0500        34
  44.1000        28
  44.1500        23
  44.2000        21
  44.2500        17
  44.3000        14
  44.3500        14
  44.4000        15
  44.4500        16
  44.5000        19
  44.5500        20
  44.6000        15
  44.6500        20
  44.7000        37
  44.7500        50
  44.8000       161
  44.8500       268
  44.9000       342
  44.9500       344
  45.0000       238
  45.0500       179
  45.1000        74
  45.1500        52
  45.2000        19
  45.2500        18
  45.3000        18
  45.3500        16
  45.4000        14
  45.4500         7
  45.5000        13
  45.5500        12
  45.6000        13
  45.6500        15
  45.7000        14
  45.7500        11
  45.8000        17
  45.8500        17
  45.9000         8
  45.9500        11
  46.0000        14
  46.0500        11
  46.1000        15
  46.1500         8
  46.2000        12
  46.2500        13
  46.3000        14
  46.3500         8
  46.4000        11
  46.4500        13
  46.5000        10
  46.5500        20
  46.6000        11
  46.6500         8
  46.7000        13
  46.7500        17
  46.8000        16
  46.8500        16
  46.9000        18
  46.9500        19
  47.0000        12
  47.0500        16
  47.1000        12
  47.1500        12
  47.2000        12
  47.2500        11
  47.3000        10
  47.3500        18
  47.4000        14
  47.4500        20
  47.5000         4
  47.5500        14
  47.6000         7
  47.6500        14
  47.7000         6
  47.7500        15
  47.8000        10
  47.8500        11
  47.9000        12
  47.9500         9
  48.0000         7
  48.0500        12
  48.1000        16
  48.1500        14
  48.2000        17
  48.2500        11
  48.3000         4
  48.3500         6
  48.4000         7
  48.4500         8
  48.5000         5
  48.5500        20
  48.6000        16
  48.6500         9
  48.7000        12
  48.7500        15
  48.8000        14
  48.8500        14
  48.9000        12
  48.9500        17
  49.0000        16
  49.0500         9
  49.1000        19
  49.1500        10
  49.2000        19
  49.2500        16
  49.3000        10
  49.3500        17
  49.4000        12
  49.4500        13
  49.5000        13
  49.5500        11
  49.6000        12
  49.6500        13
  49.7000        11
  49.7500        10
  49.8000        12
  49.8500        15
  49.9000        14
  49.9500        14
  50.0000        18
  50.0500        12
  50.1000        11
  50.1500        11
  50.2000        14
  50.2500        12
  50.3000        11
  50.3500        11
  50.4000        14
  50.4500        14
  50.5000        13
  50.5500        11
  50.6000        13
  50.6500        14
  50.7000        10
  50.7500        13
  50.8000        16
  50.8500        21
  50.9000        13
  50.9500         8
  51.0000        16
  51.0500        20
  51.1000        18
  51.1500        18
  51.2000        11
  51.2500         8
  51.3000        10
  51.3500        17
  51.4000        19
  51.4500        17
  51.5000        18
  51.5500         8
  51.6000        17
  51.6500        11
  51.7000        14
  51.7500        27
  51.8000        22
  51.8500        14
  51.9000        19
  51.9500        30
  52.0000        17
  52.0500        34
  52.1000        40
  52.1500        82
  52.2000       120
  52.2500       213
  52.3000       267
  52.3500       191
  52.4000       176
  52.4500       129
  52.5000        74
  52.5500        42
  52.6000        30
  52.6500        20
  52.7000        17
  52.7500        20
  52.8000        16
  52.8500        18
  52.9000        13
  52.9500        16
  53.0000        12
  53.0500        12
  53.1000        14
  53.1500        16
  53.2000        12
  53.2500        17
  53.3000        13
  53.3500        15
  53.4000        16
  53.4500        17
  53.5000        15
  53.5500        15
  53.6000        14
  53.6500        15
  53.7000        13
  53.7500        18
  53.8000        16
  53.8500        21
  53.9000        10
  53.9500        14
  54.0000        12
  54.0500        11
  54.1000        13
  54.1500        10
  54.2000        16
  54.2500        18
  54.3000        14
  54.3500        11
  54.4000        14
  54.4500        24
  54.5000        19
  54.5500        10
  54.6000        12
  54.6500        10
  54.7000        11
  54.7500        16
  54.8000        12
  54.8500        10
  54.9000        14
  54.9500        15
  55.0000        16
  55.0500        16
  55.1000        10
  55.1500        12
  55.2000        21
  55.2500        30
  55.3000        39
  55.3500        62
  55.4000        64
  55.4500        53
  55.5000        41
  55.5500        32
  55.6000        25
  55.6500        19
  55.7000         4
  55.7500        15
  55.8000        16
  55.8500        15
  55.9000        17
  55.9500        18
  56.0000         9
  56.0500        21
  56.1000        13
  56.1500        22
  56.2000        17
  56.2500        18
  56.3000        14
  56.3500        12
  56.4000        14
  56.4500        13
  56.5000        17
  56.5500        19
  56.6000        17
  56.6500        14
  56.7000        21
  56.7500         8
  56.8000        13
  56.8500        12
  56.9000        16
  56.9500        13
  57.0000        11
  57.0500        16
  57.1000        15
  57.1500        13
  57.2000        11
  57.2500         9
  57.3000        17
  57.3500        13
  57.4000        11
  57.4500        15
  57.5000        10
  57.5500        20
  57.6000        13
  57.6500        16
  57.7000        15
  57.7500        15
  57.8000        10
  57.8500        13
  57.9000        12
  57.9500        16
  58.0000        10
  58.0500        14
  58.1000        17
  58.1500        16
  58.2000         9
  58.2500        20
  58.3000        15
  58.3500         8
  58.4000        11
  58.4500        15
  58.5000        16
  58.5500        16
  58.6000        12
  58.6500        11
  58.7000        20
  58.7500        12
  58.8000        15
  58.8500        17
  58.9000        13
  58.9500        14
  59.0000        17
  59.0500        18
  59.1000        12
  59.1500         8
  59.2000        18
  59.2500         9
  59.3000         6
  59.3500        13
  59.4000        11
  59.4500        15
  59.5000         7
  59.5500        10
  59.6000        13
  59.6500         7
  59.7000        11
  59.7500        20
  59.8000        15
  59.8500        22
  59.9000        22
  59.9500        16
  60.0000         8
  60.0500        13
  60.1000        15
  60.1500        15
  60.2000        14
  60.2500        16
  60.3000        16
  60.3500        13
  60.4000        12
  60.4500        14
  60.5000        14
  60.5500        23
  60.6000        15
  60.6500        17
  60.7000        11
  60.7500        18
  60.8000        21
  60.8500        16
  60.9000        20
  60.9500         8
  61.0000        18
  61.0500        13
  61.1000        11
  61.1500        20
  61.2000        17
  61.2500        16
  61.3000        17
  61.3500        18
  61.4000        16
  61.4500        16
  61.5000        15
  61.5500        17
  61.6000        23
  61.6500        22
  61.7000        15
  61.7500        18
  61.8000        23
  61.8500        16
  61.9000        29
  61.9500        22
  62.0000        29
  62.0500        61
  62.1000       127
  62.1500       187
  62.2000       202
  62.2500       139
  62.3000       139
  62.3500       111
  62.4000       106
  62.4500       120
  62.5000       115
  62.5500       133
  62.6000       107
  62.6500        86
  62.7000        72
  62.7500        65
  62.8000        29
  62.8500        37
  62.9000        24
  62.9500        28
  63.0000        14
  63.0500        15
  63.1000        15
  63.1500        16
  63.2000        12
  63.2500        15
  63.3000        18
  63.3500        18
  63.4000        16
  63.4500        14
  63.5000        28
  63.5500        18
  63.6000        20
  63.6500        16
  63.7000        27
  63.7500        36
  63.8000        32
  63.8500        34
  63.9000        29
  63.9500        30
  64.0000        23
  64.0500        24
  64.1000        24
  64.1500        14
  64.2000        19
  64.2500        21
  64.3000        15
  64.3500        15
  64.4000        17
  64.4500        26
  64.5000        41
  64.5500        45
  64.6000        75
  64.6500        87
  64.7000        51
  64.7500        34
  64.8000        48
  64.8500        33
  64.9000        25
  64.9500        16
  65.0000        15
  65.0500        20
  65.1000        28
  65.1500        24
  65.2000        59
  65.2500        77
  65.3000        89
  65.3500        61
  65.4000        62
  65.4500        52
  65.5000        42
  65.5500        35
  65.6000        16
  65.6500        20
  65.7000        15
  65.7500        16
  65.8000        16
  65.8500         6
  65.9000        15
  65.9500        19
  66.0000        14
  66.0500        17
  66.1000        18
  66.1500         8
  66.2000        12
  66.2500        16
  66.3000        13
  66.3500        13
  66.4000         9
  66.4500        12
  66.5000        22
  66.5500        10
  66.6000        25
  66.6500        15
  66.7000        16
  66.7500        16
  66.8000        18
  66.8500        11
  66.9000         7
  66.9500        10
  67.0000        15
  67.0500        14
  67.1000        15
  67.1500        14
  67.2000        17
  67.2500        16
  67.3000         7
  67.3500        14
  67.4000        19
  67.4500        10
  67.5000         8
  67.5500        20
  67.6000        12
  67.6500         4
  67.7000        10
  67.7500        12
  67.8000        15
  67.8500         6
  67.9000         9
  67.9500         9
  68.0000        22
  68.0500        19
  68.1000        17
  68.1500        14
  68.2000        14
  68.2500        12
  68.3000        13
  68.3500        12
  68.4000        15
  68.4500        13
  68.5000        15
  68.5500         8
  68.6000        17
  68.6500        12
  68.7000        13
  68.7500        20
  68.8000        18
  68.8500        10
  68.9000        12
  68.9500        12
  69.0000        15
  69.0500        12
  69.1000        10
  69.1500         8
  69.2000         9
  69.2500         6
  69.3000        18
  69.3500        11
  69.4000        15
  69.4500        12
  69.5000        14
  69.5500         9
  69.6000        16
  69.6500        10
  69.7000        11
  69.7500        10
  69.8000         9
  69.8500        16
  69.9000        12
  69.9500        11
  70.0000        11
  70.0500         8
  70.1000         9
  70.1500        13
  70.2000        10
  70.2500        11
  70.3000        11
  70.3500        18
  70.4000        10
  70.4500        22
  70.5000        11
  70.5500        16
  70.6000        14
  70.6500        13
  70.7000        15
  70.7500         7
  70.8000        11
  70.8500         6
  70.9000        12
  70.9500        21
  71.0000         9
  71.0500        11
  71.1000        15
  71.1500        13
  71.2000        10
  71.2500        13
  71.3000        12
  71.3500        12
  71.4000        19
  71.4500        16
  71.5000        15
  71.5500        12
  71.6000        16
  71.6500        16
  71.7000         9
  71.7500        14
  71.8000        11
  71.8500        15
  71.9000         7
  71.9500        16
  72.0000        14
  72.0500        14
  72.1000        14
  72.1500        19
  72.2000         9
  72.2500        16
  72.3000        16
  72.3500        37
  72.4000        48
  72.4500        49
  72.5000        32
  72.5500        32
  72.6000        30
  72.6500        28
  72.7000        21
  72.7500        18
  72.8000         7
  72.8500        17
  72.9000        19
  72.9500        14
  73.0000        12
  73.0500        32
  73.1000        26
  73.1500        43
  73.2000        46
  73.2500        29
  73.3000        23
  73.3500        24
  73.4000        33
  73.4500        28
  73.5000        16
  73.5500        15
  73.6000        11
  73.6500        14
  73.7000        13
  73.7500        14
  73.8000        13
  73.8500        22
  73.9000        19
  73.9500        15
  74.0000         3
  74.0500         7
  74.1000        19
  74.1500        10
  74.2000        16
  74.2500        17
  74.3000        20
  74.3500        14
  74.4000        10
  74.4500        17
  74.5000        11
  74.5500        13
  74.6000         9
  74.6500        14
  74.7000        11
  74.7500        18
  74.8000        17
  74.8500        15
  74.9000         7
  74.9500        14
  75.0000         8
  75.0500        13
  75.1000         8
  75.1500        12
  75.2000         6
  75.2500        11
  75.3000        18
  75.3500        10
  75.4000        12
  75.4500        12
  75.5000         6
  75.5500        14
  75.6000        16
  75.6500        15
  75.7000        10
  75.7500        11
  75.8000        15
  75.8500        16
  75.9000        13
  75.9500        10
  76.0000         8
  76.0500        14
  76.1000        16
  76.1500        10
  76.2000        17
  76.2500        10
  76.3000        17
  76.3500         7
  76.4000        18
  76.4500        17
  76.5000        15
  76.5500        12
  76.6000        20
  76.6500        15
  76.7000        11
  76.7500        18
  76.8000        14
  76.8500        17
  76.9000        18
  76.9500        21
  77.0000        37
  77.0500        29
  77.1000        35
  77.1500        21
  77.2000        18
  77.2500        19
  77.3000        15
  77.3500        19
  77.4000        15
  77.4500        11
  77.5000        14
  77.5500        15
  77.6000        10
  77.6500         9
  77.7000        11
  77.7500        10
  77.8000        15
  77.8500        10
  77.9000        11
  77.9500        13
  78.0000         8
  78.0500        20
  78.1000        20
  78.1500        11
  78.2000        11
  78.2500         8
  78.3000        11
  78.3500        20
  78.4000        16
  78.4500        15
  78.5000        19
  78.5500         7
  78.6000        16
  78.6500        17
  78.7000        20
  78.7500        14
  78.8000        12
  78.8500        13
  78.9000         8
  78.9500        12
  79.0000         7
  79.0500        11
  79.1000        10
  79.1500        27
  79.2000        17
  79.2500        14
  79.3000        16
  79.3500        18
  79.4000        40
  79.4500        70
  79.5000        80
  79.5500        76
  79.6000        57
  79.6500        40
  79.7000        51
  79.7500        43
  79.8000        28
  79.8500        32
  79.9000        15
  79.9500        12
  80.0000         4
  80.0500        16
  80.1000        13
  80.1500        13
  80.2000         9
  80.2500        13
  80.3000         8
  80.3500         9
  80.4000        12
  80.4500        10
  80.5000        12
  80.5500         5
  80.6000        10
  80.6500        11
  80.7000         9
  80.7500        18
  80.8000        12
  80.8500         9
  80.9000        13
  80.9500        15
  81.0000        19
  81.0500        14
  81.1000        11
  81.1500        15
  81.2000         8
  81.2500        12
  81.3000        14
  81.3500        13
  81.4000        15
  81.4500        10
  81.5000        13
  81.5500        13
  81.6000        15
  81.6500        12
  81.7000        11
  81.7500        15
  81.8000         7
  81.8500        15
  81.9000        14
  81.9500         7
  82.0000         8
  82.0500        10
  82.1000         9
  82.1500        13
  82.2000        14
  82.2500         9
  82.3000        15
  82.3500        10
  82.4000         9
  82.4500        11
  82.5000        10
  82.5500        19
  82.6000        12
  82.6500        10
  82.7000        14
  82.7500        17
  82.8000        19
  82.8500        15
  82.9000        15
  82.9500        11
  83.0000         5
  83.0500        13
  83.1000        12
  83.1500         7
  83.2000        12
  83.2500         9
  83.3000        15
  83.3500        13
  83.4000        15
  83.4500        13
  83.5000         6
  83.5500        19
  83.6000         9
  83.6500        10
  83.7000        14
  83.7500        14
  83.8000         5
  83.8500        19
  83.9000        13
  83.9500        11
  84.0000         8
  84.0500        11
  84.1000        12
  84.1500        14
  84.2000        17
  84.2500        17
  84.3000         7
  84.3500         8
  84.4000        13
  84.4500        11
  84.5000        14
  84.5500        15
  84.6000        16
  84.6500        10
  84.7000        11
  84.7500         8
  84.8000        15
  84.8500        16
  84.9000        14
  84.9500        20
  85.0000         8
  85.0500        16
  85.1000        16
  85.1500        17
  85.2000        14
  85.2500        15
  85.3000        17
  85.3500        17
  85.4000        40
  85.4500        49
  85.5000        51
  85.5500        46
  85.6000        44
  85.6500        43
  85.7000        36
  85.7500        38
  85.8000        36
  85.8500        29
  85.9000        17
  85.9500        22
  86.0000        16
  86.0500        11
  86.1000        13
  86.1500        17
  86.2000        15
  86.2500         9
  86.3000        13
  86.3500        11
  86.4000        19
  86.4500        10
  86.5000        11
  86.5500        10
  86.6000        16
  86.6500        12
  86.7000        15
  86.7500        17
  86.8000        13
  86.8500        13
  86.9000         9
  86.9500        16
  87.0000        16
  87.0500        14
  87.1000        16
  87.1500        19
  87.2000        11
  87.2500        14
  87.3000        14
  87.3500        15
  87.4000        18
  87.4500        19
  87.5000        16
  87.5500         6
  87.6000        15
  87.6500        17
  87.7000        16
  87.7500        14
  87.8000        19
  87.8500        13
  87.9000        13
  87.9500        12
  88.0000        13
  88.0500        22
  88.1000        14
  88.1500        19
  88.2000        33
  88.2500        34
  88.3000        58
  88.3500        29
  88.4000        37
  88.4500        25
  88.5000        33
  88.5500        35
  88.6000        26
  88.6500        33
  88.7000        21
  88.7500        14
  88.8000        10
  88.8500        10
  88.9000         9
  88.9500        13
  89.0000        15
  89.0500        19
  89.1000         9
  89.1500        15
  89.2000        16
  89.2500        13
  89.3000        27
  89.3500        33
  89.4000        38
  89.4500        40
  89.5000        39
  89.5500        18
  89.6000        18
  89.6500        22
  89.7000        34
  89.7500        27
  89.8000        18
  89.8500        15
  89.9000        11
  89.9500        10
  90.0000        10
  90.0500         8
  90.1000        14
  90.1500        16
  90.2000        13
  90.2500         7
  90.3000        15
  90.3500        11
  90.4000        12
  90.4500        11
  90.5000         5
  90.5500        11
  90.6000        13
  90.6500         8
  90.7000        10
  90.7500        20
  90.8000        16
  90.8500        15
  90.9000         9
  90.9500        15
  91.0000        16
  91.0500        15
  91.1000        15
  91.1500         8
  91.2000        15
  91.2500        12
  91.3000        12
  91.3500        15
  91.4000         9
  91.4500        10
  91.5000        13
  91.5500        13
  91.6000        16
  91.6500        11
  91.7000        13
  91.7500        13
  91.8000        12
  91.8500        13
  91.9000        13
  91.9500        12
  92.0000        12
  92.0500        21
  92.1000        13
  92.1500        13
  92.2000        11
  92.2500        13
  92.3000        13
  92.3500         9
  92.4000        10
  92.4500        12
  92.5000        10
  92.5500        13
  92.6000        17
  92.6500        12
  92.7000         9
  92.7500        11
  92.8000        11
  92.8500        10
  92.9000        14
  92.9500        13
  93.0000         9
  93.0500         9
  93.1000         8
  93.1500        16
  93.2000        15
  93.2500        10
  93.3000         8
  93.3500        11
  93.4000        10
  93.4500         8
  93.5000        17
  93.5500        17
  93.6000        11
  93.6500        14
  93.7000         9
  93.7500         8
  93.8000         4
  93.8500        15
  93.9000        11
  93.9500        17
  94.0000        16
  94.0500        18
  94.1000        14
  94.1500         9
  94.2000        10
  94.2500        10
  94.3000        11
  94.3500         6
  94.4000         8
  94.4500        15
  94.5000        12
  94.5500        15
  94.6000        15
  94.6500        12
  94.7000        14
  94.7500         9
  94.8000        19
  94.8500        18
  94.9000         7
  94.9500        12
  95.0000        17
  95.0500        13
  95.1000        17
  95.1500        27
  95.2000        15
  95.2500        17
  95.3000        18
  95.3500        12
  95.4000        14
  95.4500        17
  95.5000        23
  95.5500        34
  95.6000        30
  95.6500        20
  95.7000        15
  95.7500        21
  95.8000        14
  95.8500        24
  95.9000        13
  95.9500        13
  96.0000        13
  96.0500        18
  96.1000        11
  96.1500        10
  96.2000        16
  96.2500        14
  96.3000        14
  96.3500        18
  96.4000        11
  96.4500        17
  96.5000        10
  96.5500        18
  96.6000        13
  96.6500        22
  96.7000        14
  96.7500        16
  96.8000        18
  96.8500        12
  96.9000        14
  96.9500         7
  97.0000        26
  97.0500        14
  97.1000        12
  97.1500        15
  97.2000        18
  97.2500        12
  97.3000        25
  97.3500        59
  97.4000        32
  97.4500        32
  97.5000        18
  97.5500        20
  97.6000        22
  97.6500        24
  97.7000        29
  97.7500        19
  97.8000        15
  97.8500        20
  97.9000        14
  97.9500        13
  98.0000        11
  98.0500        13
  98.1000        12
  98.1500        11
  98.2000        12
  98.2500        14
  98.3000        21
  98.3500        10
  98.4000        15
  98.4500        19
  98.5000        11
  98.5500         8
  98.6000         7
  98.6500        14
  98.7000        17
  98.7500        10
  98.8000         9
  98.8500        15
  98.9000        17
  98.9500        13
  99.0000        15
  99.0500        12
  99.1000        12
  99.1500         8
  99.2000        19
  99.2500        15
  99.3000        21
  99.3500        35
  99.4000        29
  99.4500        27
  99.5000        39
  99.5500        25
  99.6000        39
  99.6500        24
  99.7000        21
  99.7500        36
  99.8000        29
  99.8500        30
  99.9000        17
  99.9500        18
 100.0000        12
 100.0500         8
 100.1000        13
 100.1500        15
 100.2000         9
 100.2500        14
 100.3000        13
 100.3500        14
 100.4000        12
 100.4500        16
 100.5000        13
 100.5500        14
 100.6000        12
 100.6500        11
 100.7000        13
 100.7500        17
 100.8000        14
 100.8500        12
 100.9000        19
 100.9500        15
 101.0000        15
 101.0500        15
 101.1000        12
 101.1500        15
 101.2000        15
 101.2500        17
 101.3000        10
 101.3500        12
 101.4000        21
 101.4500        15
 101.5000         8
 101.5500        11
 101.6000        10
 101.6500        13
 101.7000        12
 101.7500        17
 101.8000        17
 101.8500        16
 101.9000        10
 101.9500        10
 102.0000         9
 102.0500        15
 102.1000         9
 102.1500         7
 102.2000        10
 102.2500        20
 102.3000        11
 102.3500        10
 102.4000        12
 102.4500        13
 102.5000        14
 102.5500        13
 102.6000        15
 102.6500        21
 102.7000        14
 102.7500         7
 102.8000        16
 102.8500        14
 102.9000         9
 102.9500         8
 103.0000         7
 103.0500        10
 103.1000        17
 103.1500        12
 103.2000        24
 103.2500        31
 103.3000        25
 103.3500        33
 103.4000        20
 103.4500        17
 103.5000        19
 103.5500        23
 103.6000        20
 103.6500        15
 103.7000        19
 103.7500        14
 103.8000        16
 103.8500        15
 103.9000        19
 103.9500         7
 104.0000         8
 104.0500         8
 104.1000        10
 104.1500        14
 104.2000         9
 104.2500        12
 104.3000        20
 104.3500        15
 104.4000        13
 104.4500        16
 104.5000        12
 104.5500        11
 104.6000        10
 104.6500         7
 104.7000        11
 104.7500        18
 104.8000        18
 104.8500        22
 104.9000        17
 104.9500        17
 105.0000        14
 105.0500        16
 105.1000        13
 105.1500        16
 105.2000        18
 105.2500        13
 105.3000        17
 105.3500        10
 105.4000        19
 105.4500        14
 105.5000        10
 105.5500        11
 105.6000        13
 105.6500        17
 105.7000        11
 105.7500        11
 105.8000        15
 105.8500        17
 105.9000        13
 105.9500        19
 106.0000        16
 106.0500        11
 106.1000         7
 106.1500        10
 106.2000        10
 106.2500        11
 106.3000        14
 106.3500        10
 106.4000        14
 106.4500        14
 106.5000        13
 106.5500         6
 106.6000        17
 106.6500        22
 106.7000        14
 106.7500        18
 106.8000        15
 106.8500        10
 106.9000        16
 106.9500        22
 107.0000        12
 107.0500         7
 107.1000        10
 107.1500        17
 107.2000        12
 107.2500        16
 107.3000         9
 107.3500        12
 107.4000        10
 107.4500        12
 107.5000        15
 107.5500        13
 107.6000        17
 107.6500        14
 107.7000        12
 107.7500        16
 107.8000        15
 107.8500        20
 107.9000        33
 107.9500        46
 108.0000        42
 108.0500        50
 108.1000        42
 108.1500        25
 108.2000        26
 108.2500        21
 108.3000        17
 108.3500        29
 108.4000        28
 108.4500        28
 108.5000        25
 108.5500        22
 108.6000        20
 108.6500        19
 108.7000        13
 108.7500        19
 108.8000        22
 108.8500        15
 108.9000        17
 108.9500        13
 109.0000        17
 109.0500        18
 109.1000        19
 109.1500        10
 109.2000        19
 109.2500         8
 109.3000        10
 109.3500        12
 109.4000        14
 109.4500        20
 109.5000        14
 109.5500        10
 109.6000        13
 109.6500        12
 109.7000         8
 109.7500        15
 109.8000        20
 109.8500         9
 109.9000        16
 109.9500        13
 110.0000        18
