  10.0000        21
  10.0500        20
  10.1000        17
  10.1500        17
  10.2000        12
  10.2500        19
  10.3000        20
  10.3500        23
  10.4000        22
  10.4500        19
  10.5000        13
  10.5500        14
  10.6000        21
  10.6500        21
  10.7000        20
  10.7500        15
  10.8000        24
  10.8500        19
  10.9000        24
  10.9500        12
  11.0000        20
  11.0500        17
  11.1000        16
  11.1500        12
  11.2000        15
  11.2500        13
  11.3000        18
  11.3500        15
  11.4000        16
  11.4500        13
  11.5000        18
  11.5500        17
  11.6000        21
  11.6500        16
  11.7000        19
  11.7500        17
  11.8000        16
  11.8500        18
  11.9000        19
  11.9500        23
  12.0000        14
  12.0500        13
  12.1000        12
  12.1500        20
  12.2000         9
  12.2500        14
  12.3000        17
  12.3500        13
  12.4000        18
  12.4500        20
  12.5000        24
  12.5500        23
  12.6000        13
  12.6500        13
  12.7000        12
  12.7500        15
  12.8000        15
  12.8500         9
  12.9000        19
  12.9500        13
  13.0000        16
  13.0500        23
  13.1000        20
  13.1500        12
  13.2000        17
  13.2500        18
  13.3000        14
  13.3500        15
  13.4000        13
  13.4500        15
  13.5000        10
  13.5500        11
  13.6000        21
  13.6500        15
  13.7000         9
  13.7500        21
  13.8000        17
  13.8500        10
  13.9000        11
  13.9500        17
  14.0000        13
  14.0500        13
  14.1000        14
  14.1500        11
  14.2000        16
  14.2500        16
  14.3000        13
  14.3500        13
  14.4000        12
  14.4500        14
  14.5000        10
  14.5500        13
  14.6000         7
  14.6500         9
  14.7000        16
  14.7500        15
  14.8000         7
  14.8500        11
  14.9000        10
  14.9500        24
  15.0000         9
  15.0500        14
  15.1000        14
  15.1500         7
  15.2000        15
  15.2500        12
  15.3000        14
  15.3500        10
  15.4000        16
  15.4500        18
  15.5000        19
  15.5500        10
  15.6000        19
  15.6500        10
  15.7000        18
  15.7500        13
  15.8000        14
  15.8500        16
  15.9000        12
  15.9500         9
  16.0000        15
  16.0500        12
  16.1000        10
  16.1500        12
  16.2000        15
  16.2500        13
  16.3000        11
  16.3500        10
  16.4000        11
  16.4500        14
  16.5000         9
  16.5500        19
  16.6000        23
  16.6500        11
  16.7000        16
  16.7500        16
  16.8000        15
  16.8500        18
  16.9000        18
  16.9500         8
  17.0000        13
  17.0500        13
  17.1000        19
  17.1500        13
  17.2000        13
  17.2500        10
  17.3000         9
  17.3500        13
  17.4000        11
  17.4500        14
  17.5000         7
  17.5500        13
  17.6000        14
  17.6500        11
  17.7000        12
  17.7500        14
  17.8000        13
  17.8500         9
  17.9000         8
  17.9500        13
  18.0000        12
  18.0500        15
  18.1000        17
  18.1500        12
  18.2000        13
  18.2500        15
  18.3000        13
  18.3500         9
  18.4000        22
  18.4500        21
  18.5000        10
  18.5500        14
  18.6000        13
  18.6500        12
  18.7000        13
  18.7500         7
  18.8000        15
  18.8500        14
  18.9000        12
  18.9500        11
  19.0000         6
  19.0500        16
  19.1000        10
  19.1500        17
  19.2000        10
  19.2500        14
  19.3000        11
  19.3500        18
  19.4000         7
  19.4500        11
  19.5000         8
  19.5500        11
  19.6000        16
  19.6500        15
  19.7000         8
  19.7500        19
  19.8000        11
  19.8500        12
  19.9000        16
  19.9500        12
  20.0000        11
  20.0500        14
  20.1000        20
  20.1500        16
  20.2000         5
  20.2500        16
  20.3000        16
  20.3500        11
  20.4000         8
  20.4500        12
  20.5000        16
  20.5500        12
  20.6000        16
  20.6500        15
  20.7000        15
  20.7500         9
  20.8000        11
  20.8500        13
  20.9000        12
  20.9500         7
  21.0000         9
  21.0500        12
  21.1000        10
  21.1500        11
  21.2000        15
  21.2500        17
  21.3000        12
  21.3500        17
  21.4000         7
  21.4500        11
  21.5000         5
  21.5500        14
  21.6000         8
  21.6500        10
  21.7000        10
  21.7500        11
  21.8000         8
  21.8500        17
  21.9000        14
  21.9500         8
  22.0000        15
  22.0500        15
  22.1000        14
  22.1500        14
  22.2000         9
  22.2500        11
  22.3000        18
  22.3500        13
  22.4000        17
  22.4500        16
  22.5000        16
  22.5500         6
  22.6000        14
  22.6500        16
  22.7000        13
  22.7500        10
  22.8000        19
  22.8500        12
  22.9000        15
  22.9500         9
  23.0000        20
  23.0500        15
  23.1000        11
  23.1500        14
  23.2000        13
  23.2500        15
  23.3000        16
  23.3500        12
  23.4000        14
  23.4500        15
  23.5000        12
  23.5500        13
  23.6000        11
  23.6500        13
  23.7000        11
  23.7500        13
  23.8000        20
  23.8500        15
  23.9000         9
  23.9500        19
  24.0000        19
  24.0500        15
  24.1000        13
  24.1500        13
  24.2000        17
  24.2500         5
  24.3000        10
  24.3500        15
  24.4000        17
  24.4500        18
  24.5000         9
  24.5500        15
  24.6000        12
  24.6500        10
  24.7000        22
  24.7500        15
  24.8000        10
  24.8500        18
  24.9000        19
  24.9500        21
  25.0000        17
  25.0500        12
  25.1000        16
  25.1500        16
  25.2000        15
  25.2500        21
  25.3000        16
  25.3500        11
  25.4000        15
  25.4500        14
  25.5000        17
  25.5500        17
  25.6000        13
  25.6500        16
  25.7000        17
  25.7500        15
  25.8000        10
  25.8500        18
  25.9000        13
  25.9500        14
  26.0000        17
  26.0500         9
  26.1000        12
  26.1500        20
  26.2000        16
  26.2500        16
  26.3000        13
  26.3500        15
  26.4000        29
  26.4500        34
  26.5000        33
  26.5500        40
  26.6000        24
  26.6500        18
  26.7000        12
  26.7500        13
  26.8000        16
  26.8500        13
  26.9000        24
  26.9500        13
  27.0000        12
  27.0500        13
  27.1000        13
  27.1500        10
  27.2000        13
  27.2500        16
  27.3000        19
  27.3500        13
  27.4000        19
  27.4500        26
  27.5000        22
  27.5500        14
  27.6000        14
  27.6500        14
  27.7000        17
  27.7500        12
  27.8000        13
  27.8500        16
  27.9000        21
  27.9500        21
  28.0000        22
  28.0500        14
  28.1000         9
  28.1500        11
  28.2000        23
  28.2500        17
  28.3000        21
  28.3500        19
  28.4000        14
  28.4500        10
  28.5000        14
  28.5500        26
  28.6000        21
  28.6500        11
  28.7000        15
  28.7500        13
  28.8000        10
  28.8500        14
  28.9000        13
  28.9500        21
  29.0000        20
  29.0500        14
  29.1000        21
  29.1500        15
  29.2000        21
  29.2500        29
  29.3000        14
  29.3500        17
  29.4000        20
  29.4500        22
  29.5000        15
  29.5500        24
  29.6000        12
  29.6500        16
  29.7000        16
  29.7500        18
  29.8000        15
  29.8500        21
  29.9000        29
  29.9500        23
  30.0000        19
  30.0500        21
  30.1000        22
  30.1500        19
  30.2000        20
  30.2500        26
  30.3000        33
  30.3500        32
  30.4000        32
  30.4500        27
  30.5000        57
  30.5500        69
  30.6000        89
  30.6500        86
  30.7000       109
  30.7500        75
  30.8000        68
  30.8500        42
  30.9000        37
  30.9500        51
  31.0000        81
  31.0500       102
  31.1000       181
  31.1500       365
  31.2000       634
  31.2500      1094
  31.3000      1309
  31.3500      1294
  31.4000      1001
  31.4500       561
  31.5000       271
  31.5500       116
  31.6000        78
  31.6500        46
  31.7000        36
  31.7500        39
  31.8000        42
  31.8500        63
  31.9000       122
  31.9500       176
  32.0000       262
  32.0500       294
  32.1000       292
  32.1500       168
  32.2000        86
  32.2500        54
  32.3000        22
  32.3500        21
  32.4000        18
  32.4500        30
  32.5000        23
  32.5500        27
  32.6000        27
  32.6500        20
  32.7000        11
  32.7500        21
  32.8000        20
  32.8500        25
  32.9000        23
  32.9500        25
  33.0000        25
  33.0500        18
  33.1000        20
  33.1500        15
  33.2000        29
  33.2500        24
  33.3000        23
  33.3500        16
  33.4000        16
  33.4500        20
  33.5000        16
  33.5500        23
  33.6000        18
  33.6500        14
  33.7000        13
  33.7500        12
  33.8000        17
  33.8500        12
  33.9000        11
  33.9500        20
  34.0000        16
  34.0500        19
  34.1000        23
  34.1500        14
  34.2000        20
  34.2500        19
  34.3000        14
  34.3500        11
  34.4000        20
  34.4500        12
  34.5000        13
  34.5500        11
  34.6000        15
  34.6500        15
  34.7000        17
  34.7500        19
  34.8000        13
  34.8500        13
  34.9000        11
  34.9500        17
  35.0000        17
  35.0500        25
  35.1000        19
  35.1500        20
  35.2000        17
  35.2500        15
  35.3000        13
  35.3500        17
  35.4000        27
  35.4500        16
  35.5000        22
  35.5500        19
  35.6000        26
  35.6500        34
  35.7000        25
  35.7500        27
  35.8000        26
  35.8500        14
  35.9000        26
  35.9500        33
  36.0000        52
  36.0500        67
  36.1000       114
  36.1500       191
  36.2000       335
  36.2500       516
  36.3000       613
  36.3500       656
  36.4000       516
  36.4500       343
  36.5000       167
  36.5500        89
  36.6000        45
  36.6500        27
  36.7000        36
  36.7500        25
  36.8000        21
  36.8500        21
  36.9000        24
  36.9500        20
  37.0000        19
  37.0500        18
  37.1000        22
  37.1500        20
  37.2000        16
  37.2500        16
  37.3000        16
  37.3500        12
  37.4000        18
  37.4500        17
  37.5000        18
  37.5500        26
  37.6000        12
  37.6500        14
  37.7000        20
  37.7500        17
  37.8000        19
  37.8500        12
  37.9000        14
  37.9500        16
  38.0000        16
  38.0500        13
  38.1000        10
  38.1500        14
  38.2000        18
  38.2500        14
  38.3000        16
  38.3500        14
  38.4000        18
  38.4500        22
  38.5000        11
  38.5500         8
  38.6000         9
  38.6500        17
  38.7000        12
  38.7500        18
  38.8000        24
  38.8500        16
  38.9000         8
  38.9500         7
  39.0000        11
  39.0500        14
  39.1000        13
  39.1500        20
  39.2000        13
  39.2500        11
  39.3000        18
  39.3500        17
  39.4000        15
  39.4500        14
  39.5000        14
  39.5500        15
  39.6000        17
  39.6500        12
  39.7000        14
  39.7500         8
  39.8000        21
  39.8500        14
  39.9000        11
  39.9500        11
  40.0000        14
  40.0500        14
  40.1000        10
  40.1500        16
  40.2000        11
  40.2500        20
  40.3000        13
  40.3500        12
  40.4000        12
  40.4500         9
  40.5000        18
  40.5500        16
  40.6000        17
  40.6500        14
  40.7000        17
  40.7500         8
  40.8000         7
  40.8500        14
  40.9000        12
  40.9500        15
  41.0000        19
  41.0500        10
  41.1000         9
  41.1500        14
  41.2000        12
  41.2500         7
  41.3000        16
  41.3500        11
  41.4000        19
  41.4500         6
  41.5000         8
  41.5500        10
  41.6000        15
  41.6500        11
  41.7000        14
  41.7500        13
  41.8000        14
  41.8500        19
  41.9000        17
  41.9500        13
  42.0000         7
  42.0500        12
  42.1000        11
  42.1500        15
  42.2000         9
  42.2500         6
  42.3000         7
  42.3500        10
  42.4000        20
  42.4500        14
  42.5000        14
  42.5500        18
  42.6000        17
  42.6500        13
  42.7000        13
  42.7500        17
  42.8000        13
  42.8500        13
  42.9000         8
  42.9500        13
  43.0000        24
  43.0500        15
  43.1000        20
  43.1500        13
  43.2000        12
  43.2500        10
  43.3000        16
  43.3500        16
  43.4000         9
  43.4500        21
  43.5000        10
  43.5500         9
  43.6000        10
  43.6500        15
  43.7000        17
  43.7500        30
  43.8000        41
  43.8500        70
  43.9000        71
  43.9500        55
  44.0000        49
  44.0500        47
  44.1000        26
  44.1500        17
  44.2000        19
  44.2500        30
  44.3000        20
  44.3500        17
  44.4000        10
  44.4500        15
  44.5000        16
  44.5500        13
  44.6000        20
  44.6500        17
  44.7000        33
  44.7500        31
  44.8000        67
  44.8500       170
  44.9000       195
  44.9500       176
  45.0000       201
  45.0500       124
  45.1000        52
  45.1500        34
  45.2000        21
  45.2500        21
  45.3000        15
  45.3500        17
  45.4000        15
  45.4500        14
  45.5000        12
  45.5500        14
  45.6000        14
  45.6500        15
  45.7000        12
  45.7500        14
  45.8000        11
  45.8500        16
  45.9000        13
  45.9500         9
  46.0000        10
  46.0500        11
  46.1000        17
  46.1500        11
  46.2000        13
  46.2500        13
  46.3000         6
  46.3500        13
  46.4000        14
  46.4500        12
  46.5000        10
  46.5500        10
  46.6000        12
  46.6500         8
  46.7000        20
  46.7500        16
  46.8000        11
  46.8500         8
  46.9000        12
  46.9500         7
  47.0000        12
  47.0500        11
  47.1000        11
  47.1500         7
  47.2000        16
  47.2500        14
  47.3000        28
  47.3500        29
  47.4000        37
  47.4500        38
  47.5000        23
  47.5500        20
  47.6000        10
  47.6500        11
  47.7000        19
  47.7500        16
  47.8000        16
  47.8500        12
  47.9000        22
  47.9500         8
  48.0000        10
  48.0500        15
  48.1000        11
  48.1500        14
  48.2000         9
  48.2500        18
  48.3000        12
  48.3500        17
  48.4000         9
  48.4500         4
  48.5000         9
  48.5500        13
  48.6000        11
  48.6500        12
  48.7000        14
  48.7500        13
  48.8000        17
  48.8500         8
  48.9000        10
  48.9500        12
  49.0000        11
  49.0500         6
  49.1000        16
  49.1500         6
  49.2000        19
  49.2500        13
  49.3000        19
  49.3500         8
  49.4000        15
  49.4500        16
  49.5000        20
  49.5500        13
  49.6000        14
  49.6500        15
  49.7000        19
  49.7500        10
  49.8000        15
  49.8500        15
  49.9000        12
  49.9500        14
  50.0000        16
  50.0500        14
  50.1000         7
  50.1500        10
  50.2000        13
  50.2500        12
  50.3000        12
  50.3500        12
  50.4000        16
  50.4500        16
  50.5000        16
  50.5500        18
  50.6000         9
  50.6500        11
  50.7000        22
  50.7500        14
  50.8000        15
  50.8500        16
  50.9000        13
  50.9500        11
  51.0000        19
  51.0500        11
  51.1000        14
  51.1500        16
  51.2000        16
  51.2500        10
  51.3000        18
  51.3500        24
  51.4000        15
  51.4500        11
  51.5000        12
  51.5500        17
  51.6000        22
  51.6500        18
  51.7000        19
  51.7500        15
  51.8000        24
  51.8500        20
  51.9000        15
  51.9500        17
  52.0000        37
  52.0500        43
  52.1000        63
  52.1500       100
  52.2000       193
  52.2500       271
  52.3000       259
  52.3500       221
  52.4000       156
  52.4500       133
  52.5000        93
  52.5500        58
  52.6000        33
  52.6500        31
  52.7000        22
  52.7500        17
  52.8000        18
  52.8500        21
  52.9000        26
  52.9500        18
  53.0000        13
  53.0500        21
  53.1000        17
  53.1500        19
  53.2000        13
  53.2500        13
  53.3000        14
  53.3500        12
  53.4000        12
  53.4500        12
  53.5000        14
  53.5500        20
  53.6000        11
  53.6500        13
  53.7000        10
  53.7500        17
  53.8000        18
  53.8500        17
  53.9000        12
  53.9500        14
  54.0000        12
  54.0500         9
  54.1000        17
  54.1500        14
  54.2000        14
  54.2500        21
  54.3000        13
  54.3500        27
  54.4000        19
  54.4500        16
  54.5000        12
  54.5500        13
  54.6000        13
  54.6500        26
  54.7000        20
  54.7500        19
  54.8000        16
  54.8500        13
  54.9000        13
  54.9500        19
  55.0000        15
  55.0500        22
  55.1000        16
  55.1500        24
  55.2000        15
  55.2500        38
  55.3000        43
  55.3500        56
  55.4000        71
  55.4500        42
  55.5000        40
  55.5500        34
  55.6000        15
  55.6500        22
  55.7000        22
  55.7500        17
  55.8000        12
  55.8500        13
  55.9000        14
  55.9500        13
  56.0000        15
  56.0500        17
  56.1000         8
  56.1500        14
  56.2000        12
  56.2500        15
  56.3000        15
  56.3500        12
  56.4000        12
  56.4500        18
  56.5000        20
  56.5500        13
  56.6000        14
  56.6500        16
  56.7000        17
  56.7500         9
  56.8000        13
  56.8500        20
  56.9000        22
  56.9500        18
  57.0000        13
  57.0500        14
  57.1000        20
  57.1500        18
  57.2000        21
  57.2500        18
  57.3000        13
  57.3500        16
  57.4000        13
  57.4500        13
  57.5000        12
  57.5500        13
  57.6000        12
  57.6500        20
  57.7000        17
  57.7500        17
  57.8000        19
  57.8500        14
  57.9000        13
  57.9500        16
  58.0000        16
  58.0500        25
  58.1000         9
  58.1500        11
  58.2000         9
  58.2500        16
  58.3000        16
  58.3500        13
  58.4000        14
  58.4500        17
  58.5000        11
  58.5500        18
  58.6000        16
  58.6500        15
  58.7000        22
  58.7500        13
  58.8000        12
  58.8500        17
  58.9000        15
  58.9500        23
  59.0000        19
  59.0500        10
  59.1000        19
  59.1500        13
  59.2000        18
  59.2500        18
  59.3000        15
  59.3500        20
  59.4000        11
  59.4500        25
  59.5000        17
  59.5500        19
  59.6000        16
  59.6500        16
  59.7000        14
  59.7500        16
  59.8000        10
  59.8500        11
  59.9000        25
  59.9500        20
  60.0000        18
  60.0500        15
  60.1000        14
  60.1500        17
  60.2000        21
  60.2500        13
  60.3000        15
  60.3500        24
  60.4000        16
  60.4500        19
  60.5000        13
  60.5500        21
  60.6000        18
  60.6500        19
  60.7000        12
  60.7500        12
  60.8000        15
  60.8500        12
  60.9000        26
  60.9500        21
  61.0000        20
  61.0500        14
  61.1000        21
  61.1500        21
  61.2000        17
  61.2500        20
  61.3000        17
  61.3500        17
  61.4000        40
  61.4500        26
  61.5000        17
  61.5500        17
  61.6000        18
  61.6500        15
  61.7000        19
  61.7500        23
  61.8000        32
  61.8500        35
  61.9000        33
  61.9500        43
  62.0000        65
  62.0500        89
  62.1000       199
  62.1500       282
  62.2000       306
  62.2500       304
  62.3000       273
  62.3500       225
  62.4000       191
  62.4500       148
  62.5000       123
  62.5500       112
  62.6000        80
  62.6500        56
  62.7000        77
  62.7500        41
  62.8000        27
  62.8500        20
  62.9000        18
  62.9500        27
  63.0000        16
  63.0500        24
  63.1000        15
  63.1500        15
  63.2000        21
  63.2500        27
  63.3000        17
  63.3500        15
  63.4000        18
  63.4500        13
  63.5000        18
  63.5500        16
  63.6000        12
  63.6500        14
  63.7000        17
  63.7500        27
  63.8000        20
  63.8500        20
  63.9000        16
  63.9500        28
  64.0000        18
  64.0500        30
  64.1000        29
  64.1500        20
  64.2000         9
  64.2500        16
  64.3000        16
  64.3500        26
  64.4000        26
  64.4500        17
  64.5000        35
  64.5500        40
  64.6000        65
  64.6500        90
  64.7000        48
  64.7500        40
  64.8000        42
  64.8500        40
  64.9000        26
  64.9500        15
  65.0000        22
  65.0500        26
  65.1000        30
  65.1500        26
  65.2000        42
  65.2500        84
  65.3000        91
  65.3500       103
  65.4000        83
  65.4500        63
  65.5000        52
  65.5500        56
  65.6000        32
  65.6500        39
  65.7000        16
  65.7500        25
  65.8000        16
  65.8500        25
  65.9000        10
  65.9500        13
  66.0000        10
  66.0500        13
  66.1000        11
  66.1500        16
  66.2000        11
  66.2500        16
  66.3000        17
  66.3500        15
  66.4000        16
  66.4500         7
  66.5000        12
  66.5500        12
  66.6000        17
  66.6500        10
  66.7000        15
  66.7500        18
  66.8000        17
  66.8500        15
  66.9000        19
  66.9500        13
  67.0000        18
  67.0500        12
  67.1000        13
  67.1500        15
  67.2000        17
  67.2500        16
  67.3000        23
  67.3500        11
  67.4000        12
  67.4500        16
  67.5000         9
  67.5500        19
  67.6000        24
  67.6500        16
  67.7000        21
  67.7500        16
  67.8000        20
  67.8500        23
  67.9000        15
  67.9500        11
  68.0000        10
  68.0500         9
  68.1000         9
  68.1500        17
  68.2000        19
  68.2500        25
  68.3000        11
  68.3500        11
  68.4000        15
  68.4500        11
  68.5000        12
  68.5500        12
  68.6000        18
  68.6500        10
  68.7000        15
  68.7500         8
  68.8000        10
  68.8500        15
  68.9000         6
  68.9500        14
  69.0000        13
  69.0500        11
  69.1000        20
  69.1500        14
  69.2000         9
  69.2500        11
  69.3000        10
  69.3500        16
  69.4000        15
  69.4500         9
  69.5000        16
  69.5500        10
  69.6000        12
  69.6500        14
  69.7000        12
  69.7500        12
  69.8000        18
  69.8500         7
  69.9000        13
  69.9500         8
  70.0000        12
  70.0500        20
  70.1000        10
  70.1500        17
  70.2000        20
  70.2500         8
  70.3000        11
  70.3500         7
  70.4000        22
  70.4500        17
  70.5000        12
  70.5500        18
  70.6000        15
  70.6500        12
  70.7000        12
  70.7500        18
  70.8000        15
  70.8500        17
  70.9000        10
  70.9500        20
  71.0000        13
  71.0500        15
  71.1000        11
  71.1500        18
  71.2000        10
  71.2500        14
  71.3000        13
  71.3500        17
  71.4000        12
  71.4500        11
  71.5000        12
  71.5500         9
  71.6000         8
  71.6500        11
  71.7000        17
  71.7500        18
  71.8000        15
  71.8500        10
  71.9000        15
  71.9500        15
  72.0000        21
  72.0500        12
  72.1000        12
  72.1500         9
  72.2000        15
  72.2500        13
  72.3000        18
  72.3500        15
  72.4000        20
  72.4500        29
  72.5000        17
  72.5500        20
  72.6000        16
  72.6500        28
  72.7000        19
  72.7500        20
  72.8000        19
  72.8500        19
  72.9000        15
  72.9500        13
  73.0000        12
  73.0500        23
  73.1000        29
  73.1500        31
  73.2000        34
  73.2500        31
  73.3000        17
  73.3500        26
  73.4000        28
  73.4500        18
  73.5000        16
  73.5500        29
  73.6000        14
  73.6500        16
  73.7000         9
  73.7500        11
  73.8000        10
  73.8500         6
  73.9000         9
  73.9500        19
  74.0000        11
  74.0500        11
  74.1000        14
  74.1500        11
  74.2000        15
  74.2500        23
  74.3000         7
  74.3500        11
  74.4000        14
  74.4500        15
  74.5000        11
  74.5500        12
  74.6000        10
  74.6500        21
  74.7000         8
  74.7500        10
  74.8000        12
  74.8500        20
  74.9000        11
  74.9500        11
  75.0000        11
  75.0500        12
  75.1000        11
  75.1500        12
  75.2000        18
  75.2500        19
  75.3000        15
  75.3500        12
  75.4000        16
  75.4500         6
  75.5000        11
  75.5500        16
  75.6000        15
  75.6500        18
  75.7000        16
  75.7500        10
  75.8000        15
  75.8500         7
  75.9000        16
  75.9500        18
  76.0000         8
  76.0500        17
  76.1000        13
  76.1500         9
  76.2000        17
  76.2500        10
  76.3000        10
  76.3500        11
  76.4000        23
  76.4500        18
  76.5000        16
  76.5500        17
  76.6000        11
  76.6500        16
  76.7000        14
  76.7500        23
  76.8000        20
  76.8500        12
  76.9000        15
  76.9500        36
  77.0000        46
  77.0500        62
  77.1000        76
  77.1500        49
  77.2000        48
  77.2500        41
  77.3000        56
  77.3500        31
  77.4000        24
  77.4500        19
  77.5000        14
  77.5500        17
  77.6000        16
  77.6500        17
  77.7000         5
  77.7500        12
  77.8000        14
  77.8500        16
  77.9000        10
  77.9500        16
  78.0000        11
  78.0500        10
  78.1000        15
  78.1500         9
  78.2000        12
  78.2500         8
  78.3000        12
  78.3500        12
  78.4000        13
  78.4500        15
  78.5000        11
  78.5500        12
  78.6000         9
  78.6500        11
  78.7000        13
  78.7500         7
  78.8000        13
  78.8500        17
  78.9000        10
  78.9500        17
  79.0000        13
  79.0500        11
  79.1000        14
  79.1500        17
  79.2000        17
  79.2500        18
  79.3000        11
  79.3500        23
  79.4000        26
  79.4500        46
  79.5000        33
  79.5500        32
  79.6000        30
  79.6500        43
  79.7000        35
  79.7500        18
  79.8000        26
  79.8500        23
  79.9000        12
  79.9500         8
  80.0000        11
  80.0500         8
  80.1000        22
  80.1500         9
  80.2000         9
  80.2500        19
  80.3000        15
  80.3500        15
  80.4000         8
  80.4500         7
  80.5000        12
  80.5500        20
  80.6000        21
  80.6500        15
  80.7000        11
  80.7500        13
  80.8000         8
  80.8500        10
  80.9000        12
  80.9500        10
  81.0000         7
  81.0500        18
  81.1000        15
  81.1500         7
  81.2000        17
  81.2500        16
  81.3000        11
  81.3500        11
  81.4000        15
  81.4500        14
  81.5000         8
  81.5500        16
  81.6000        12
  81.6500         9
  81.7000        10
  81.7500        15
  81.8000        14
  81.8500        12
  81.9000        14
  81.9500        17
  82.0000         6
  82.0500        10
  82.1000        11
  82.1500        10
  82.2000        17
  82.2500        16
  82.3000        11
  82.3500        13
  82.4000        13
  82.4500         6
  82.5000        11
  82.5500        10
  82.6000         9
  82.6500        13
  82.7000        17
  82.7500        18
  82.8000        12
  82.8500        12
  82.9000        11
  82.9500        12
  83.0000        17
  83.0500         9
  83.1000        11
  83.1500        11
  83.2000        14
  83.2500        11
  83.3000        15
  83.3500        10
  83.4000        13
  83.4500        18
  83.5000        19
  83.5500        19
  83.6000        18
  83.6500        17
  83.7000        18
  83.7500        20
  83.8000        12
  83.8500        22
  83.9000        19
  83.9500        13
  84.0000         8
  84.0500        12
  84.1000        17
  84.1500        16
  84.2000        18
  84.2500        21
  84.3000        18
  84.3500        16
  84.4000        22
  84.4500        14
  84.5000        11
  84.5500        13
  84.6000        21
  84.6500        10
  84.7000        19
  84.7500        14
  84.8000        20
  84.8500        15
  84.9000        18
  84.9500        13
  85.0000        19
  85.0500        12
  85.1000        18
  85.1500        17
  85.2000        16
  85.2500        17
  85.3000        30
  85.3500        26
  85.4000        51
  85.4500        78
  85.5000        85
  85.5500        91
  85.6000        62
  85.6500        60
  85.7000        59
  85.7500        41
  85.8000        41
  85.8500        42
  85.9000        26
  85.9500        29
  86.0000        20
  86.0500        11
  86.1000        17
  86.1500        13
  86.2000        19
  86.2500        19
  86.3000        12
  86.3500        16
  86.4000        15
  86.4500        13
  86.5000        20
  86.5500        19
  86.6000        16
  86.6500        15
  86.7000        22
  86.7500         9
  86.8000        13
  86.8500        15
  86.9000        18
  86.9500         9
  87.0000        18
  87.0500         9
  87.1000        18
  87.1500        11
  87.2000        17
  87.2500        19
  87.3000        12
  87.3500        13
  87.4000        14
  87.4500        13
  87.5000        15
  87.5500        13
  87.6000        19
  87.6500        18
  87.7000        14
  87.7500        14
  87.8000        18
  87.8500        22
  87.9000        21
  87.9500        15
  88.0000        16
  88.0500        17
  88.1000        31
  88.1500        39
  88.2000        58
  88.2500        85
  88.3000        77
  88.3500        74
  88.4000        57
  88.4500        54
  88.5000        61
  88.5500        42
  88.6000        46
  88.6500        28
  88.7000        28
  88.7500        26
  88.8000        12
  88.8500        29
  88.9000        11
  88.9500        13
  89.0000         8
  89.0500        16
  89.1000        21
  89.1500        22
  89.2000        16
  89.2500        16
  89.3000        10
  89.3500        26
  89.4000        29
  89.4500        29
  89.5000        25
  89.5500        16
  89.6000        19
  89.6500        23
  89.7000        21
  89.7500        27
  89.8000        14
  89.8500        16
  89.9000        10
  89.9500        20
  90.0000        11
  90.0500        16
  90.1000        12
  90.1500        17
  90.2000        18
  90.2500        12
  90.3000        13
  90.3500        14
  90.4000        15
  90.4500         9
  90.5000        14
  90.5500         8
  90.6000        14
  90.6500        19
  90.7000        19
  90.7500         9
  90.8000        14
  90.8500        22
  90.9000        11
  90.9500         9
  91.0000        16
  91.0500        15
  91.1000        10
  91.1500        13
  91.2000        12
  91.2500        13
  91.3000        16
  91.3500        13
  91.4000         7
  91.4500        20
  91.5000        13
  91.5500         7
  91.6000        10
  91.6500         8
  91.7000        21
  91.7500        15
  91.8000        11
  91.8500        12
  91.9000        14
  91.9500        14
  92.0000        17
  92.0500        11
  92.1000        12
  92.1500        10
  92.2000        17
  92.2500        17
  92.3000        14
  92.3500        14
  92.4000         6
  92.4500        17
  92.5000        20
  92.5500        10
  92.6000        12
  92.6500        17
  92.7000        13
  92.7500         6
  92.8000        12
  92.8500        15
  92.9000        14
  92.9500        12
  93.0000        23
  93.0500        10
  93.1000        12
  93.1500        11
  93.2000         7
  93.2500        11
  93.3000        19
  93.3500        13
  93.4000        15
  93.4500        13
  93.5000        17
  93.5500         7
  93.6000        15
  93.6500        22
  93.7000        15
  93.7500        12
  93.8000        16
  93.8500        15
  93.9000        10
  93.9500        14
  94.0000        13
  94.0500        13
  94.1000        15
  94.1500        10
  94.2000        12
  94.2500        15
  94.3000        19
  94.3500        17
  94.4000        11
  94.4500        12
  94.5000        10
  94.5500         9
  94.6000        14
  94.6500        10
  94.7000        17
  94.7500        13
  94.8000        13
  94.8500        12
  94.9000        13
  94.9500        12
  95.0000        15
  95.0500        14
  95.1000        17
  95.1500        11
  95.2000        28
  95.2500        12
  95.3000        11
  95.3500        19
  95.4000        18
  95.4500        16
  95.5000        34
  95.5500        24
  95.6000        13
  95.6500        18
  95.7000        14
  95.7500        10
  95.8000        15
  95.8500        12
  95.9000        13
  95.9500        10
  96.0000        11
  96.0500        14
  96.1000        20
  96.1500        17
  96.2000        13
  96.2500        13
  96.3000        10
  96.3500        10
  96.4000        13
  96.4500        14
  96.5000        12
  96.5500        20
  96.6000        11
  96.6500        17
  96.7000        24
  96.7500        28
  96.8000        19
  96.8500        14
  96.9000        12
  96.9500        18
  97.0000        16
  97.0500        11
  97.1000         9
  97.1500        20
  97.2000        12
  97.2500        16
  97.3000        15
  97.3500        21
  97.4000        20
  97.4500        19
  97.5000        18
  97.5500        10
  97.6000        18
  97.6500        23
  97.7000        18
  97.7500        14
  97.8000        12
  97.8500        18
  97.9000        10
  97.9500         9
  98.0000         9
  98.0500        11
  98.1000        17
  98.1500         8
  98.2000        16
  98.2500        17
  98.3000        10
  98.3500        18
  98.4000        16
  98.4500        14
  98.5000        16
  98.5500        14
  98.6000        16
  98.6500        13
  98.7000        27
  98.7500        16
  98.8000        20
  98.8500        11
  98.9000        20
  98.9500        18
  99.0000        12
  99.0500        14
  99.1000        20
  99.1500        13
  99.2000        27
  99.2500        23
  99.3000        31
  99.3500        38
  99.4000        59
  99.4500        66
  99.5000        47
  99.5500        40
  99.6000        40
  99.6500        35
  99.7000        26
  99.7500        34
  99.8000        36
  99.8500        19
  99.9000        28
  99.9500        30
 100.0000        14
 100.0500        21
 100.1000        19
 100.1500        12
 100.2000        17
 100.2500        16
 100.3000        15
 100.3500        11
 100.4000        12
 100.4500        20
 100.5000        19
 100.5500        13
 100.6000        15
 100.6500        11
 100.7000        16
 100.7500        10
 100.8000        12
 100.8500        16
 100.9000        19
 100.9500        13
 101.0000        12
 101.0500        18
 101.1000        14
 101.1500        20
 101.2000        11
 101.2500        17
 101.3000        21
 101.3500        12
 101.4000        17
 101.4500        17
 101.5000        14
 101.5500        12
 101.6000        12
 101.6500        15
 101.7000        12
 101.7500        15
 101.8000        12
 101.8500        10
 101.9000        11
 101.9500        15
 102.0000         5
 102.0500        21
 102.1000        18
 102.1500        14
 102.2000        17
 102.2500        10
 102.3000        15
 102.3500        14
 102.4000         9
 102.4500        19
 102.5000        14
 102.5500        18
 102.6000        14
 102.6500        16
 102.7000         9
 102.7500        13
 102.8000         9
 102.8500        11
 102.9000        13
 102.9500        22
 103.0000        17
 103.0500        15
 103.1000        13
 103.1500        19
 103.2000        27
 103.2500        20
 103.3000        25
 103.3500        24
 103.4000        30
 103.4500        16
 103.5000        20
 103.5500        20
 103.6000        19
 103.6500        22
 103.7000        14
 103.7500         9
 103.8000        11
 103.8500        15
 103.9000        15
 103.9500        12
 104.0000        17
 104.0500        17
 104.1000        14
 104.1500         8
 104.2000        18
 104.2500        11
 104.3000        13
 104.3500        14
 104.4000        15
 104.4500         9
 104.5000        13
 104.5500        11
 104.6000        19
 104.6500        13
 104.7000        19
 104.7500        15
 104.8000        15
 104.8500        16
 104.9000        25
 104.9500        17
 105.0000        14
 105.0500        18
 105.1000        11
 105.1500        20
 105.2000        18
 105.2500        17
 105.3000        14
 105.3500        24
 105.4000         7
 105.4500         9
 105.5000        23
 105.5500        10
 105.6000        13
 105.6500         9
 105.7000        13
 105.7500        11
 105.8000        14
 105.8500        18
 105.9000        10
 105.9500        19
 106.0000        14
 106.0500        14
 106.1000        14
 106.1500        15
 106.2000        13
 106.2500        11
 106.3000        18
 106.3500        15
 106.4000        13
 106.4500        11
 106.5000        18
 106.5500        10
 106.6000        11
 106.6500        10
 106.7000        13
 106.7500        12
 106.8000         9
 106.8500        13
 106.9000        12
 106.9500         9
 107.0000         8
 107.0500        14
 107.1000        19
 107.1500        22
 107.2000        16
 107.2500        14
 107.3000        14
 107.3500        16
 107.4000        12
 107.4500        23
 107.5000        13
 107.5500        13
 107.6000        18
 107.6500        16
 107.7000        27
 107.7500        28
 107.8000        27
 107.8500        34
 107.9000        34
 107.9500        56
 108.0000        58
 108.0500        63
 108.1000        51
 108.1500        46
 108.2000        28
 108.2500        25
 108.3000        25
 108.3500        32
 108.4000        36
 108.4500        35
 108.5000        31
 108.5500        28
 108.6000        23
 108.6500        24
 108.7000        27
 108.7500        14
 108.8000        18
 108.8500        16
 108.9000        16
 108.9500        17
 109.0000        19
 109.0500        14
 109.1000        19
 109.1500        15
 109.2000        13
 109.2500        23
 109.3000        13
 109.3500        14
 109.4000         6
 109.4500        10
 109.5000        15
 109.5500        20
 109.6000         4
 109.6500        16
 109.7000        11
 109.7500        11
 109.8000        18
 109.8500        14
 109.9000        14
 109.9500         8
 110.0000        10
