  10.0000        20
  10.0500        11
  10.1000        20
  10.1500        18
  10.2000        10
  10.2500        23
  10.3000        23
  10.3500        11
  10.4000        17
  10.4500        12
  10.5000        16
  10.5500        11
  10.6000        19
  10.6500        17
  10.7000        21
  10.7500        13
  10.8000        13
  10.8500        17
  10.9000        14
  10.9500        17
  11.0000        13
  11.0500        22
  11.1000        17
  11.1500        14
  11.2000        12
  11.2500        14
  11.3000        17
  11.3500        16
  11.4000        19
  11.4500         7
  11.5000        14
  11.5500        11
  11.6000        16
  11.6500        11
  11.7000        11
  11.7500        15
  11.8000         8
  11.8500        19
  11.9000        15
  11.9500        12
  12.0000        17
  12.0500        14
  12.1000        14
  12.1500        16
  12.2000        10
  12.2500        18
  12.3000        18
  12.3500        17
  12.4000        16
  12.4500        14
  12.5000        15
  12.5500        12
  12.6000        23
  12.6500        19
  12.7000        13
  12.7500        17
  12.8000        19
  12.8500        17
  12.9000        22
  12.9500        15
  13.0000        13
  13.0500        12
  13.1000        19
  13.1500        12
  13.2000         4
  13.2500        11
  13.3000        16
  13.3500        14
  13.4000        20
  13.4500        15
  13.5000        12
  13.5500        22
  13.6000        15
  13.6500        12
  13.7000         9
  13.7500        17
  13.8000        18
  13.8500        18
  13.9000        14
  13.9500        15
  14.0000        10
  14.0500         9
  14.1000         8
  14.1500        24
  14.2000        16
  14.2500        17
  14.3000        24
  14.3500        11
  14.4000        16
  14.4500        17
  14.5000        11
  14.5500        13
  14.6000        15
  14.6500        12
  14.7000        21
  14.7500        19
  14.8000        15
  14.8500        19
  14.9000        19
  14.9500        11
  15.0000        18
  15.0500        14
  15.1000        14
  15.1500        16
  15.2000        18
  15.2500        13
  15.3000        11
  15.3500        13
  15.4000        16
  15.4500        19
  15.5000        13
  15.5500         8
  15.6000        13
  15.6500        22
  15.7000        13
  15.7500        11
  15.8000        16
  15.8500         4
  15.9000        12
  15.9500        10
  16.0000        11
  16.0500        13
  16.1000         9
  16.1500        11
  16.2000        13
  16.2500        14
  16.3000         8
  16.3500        15
  16.4000        13
  16.4500        20
  16.5000        13
  16.5500         9
  16.6000        13
  16.6500        12
  16.7000        14
  16.7500        13
  16.8000        13
  16.8500        15
  16.9000         8
  16.9500         9
  17.0000         6
  17.0500        19
  17.1000        12
  17.1500        14
  17.2000        15
  17.2500        10
  17.3000        19
  17.3500        17
  17.4000         7
  17.4500        17
  17.5000         8
  17.5500        13
  17.6000         9
  17.6500        17
  17.7000        18
  17.7500        10
  17.8000        14
  17.8500        10
  17.9000         8
  17.9500        11
  18.0000        15
  18.0500        18
  18.1000         9
  18.1500        12
  18.2000        16
  18.2500        12
  18.3000        14
  18.3500        16
  18.4000        12
  18.4500        12
  18.5000        14
  18.5500        16
  18.6000        17
  18.6500        11
  18.7000        12
  18.7500        16
  18.8000        11
  18.8500        12
  18.9000        10
  18.9500        16
  19.0000        12
  19.0500        14
  19.1000        10
  19.1500        14
  19.2000        10
  19.2500        22
  19.3000        11
  19.3500        16
  19.4000        20
  19.4500        15
  19.5000         8
  19.5500        10
  19.6000        13
  19.6500        12
  19.7000        18
  19.7500         8
  19.8000        16
  19.8500        14
  19.9000        14
  19.9500        10
  20.0000        17
  20.0500        10
  20.1000        12
  20.1500         9
  20.2000         7
  20.2500         7
  20.3000        16
  20.3500        12
  20.4000        13
  20.4500        11
  20.5000        10
  20.5500         6
  20.6000        14
  20.6500        23
  20.7000        11
  20.7500        15
  20.8000        15
  20.8500         9
  20.9000        13
  20.9500         9
  21.0000        14
  21.0500        12
  21.1000         6
  21.1500        13
  21.2000         9
  21.2500        17
  21.3000        15
  21.3500        18
  21.4000        12
  21.4500         5
  21.5000        13
  21.5500        15
  21.6000        13
  21.6500        17
  21.7000        12
  21.7500        12
  21.8000         9
  21.8500         7
  21.9000        16
  21.9500        19
  22.0000        13
  22.0500        14
  22.1000        15
  22.1500        24
  22.2000        10
  22.2500        19
  22.3000        17
  22.3500        13
  22.4000        17
  22.4500        14
  22.5000        10
  22.5500        18
  22.6000        11
  22.6500        11
  22.7000        16
  22.7500        16
  22.8000        15
  22.8500        27
  22.9000        16
  22.9500        11
  23.0000        18
  23.0500        16
  23.1000        15
  23.1500         6
  23.2000        22
  23.2500        16
  23.3000        15
  23.3500        18
  23.4000        12
  23.4500        19
  23.5000        16
  23.5500        13
  23.6000        12
  23.6500         6
  23.7000        17
  23.7500        11
  23.8000         4
  23.8500        12
  23.9000        13
  23.9500        11
  24.0000         4
  24.0500         9
  24.1000        16
  24.1500        15
  24.2000        14
  24.2500        16
  24.3000        13
  24.3500        18
  24.4000        17
  24.4500        12
  24.5000         8
  24.5500         9
  24.6000        12
  24.6500        15
  24.7000        17
  24.7500        12
  24.8000        18
  24.8500        18
  24.9000        19
  24.9500        10
  25.0000        22
  25.0500        20
  25.1000        15
  25.1500        21
  25.2000         9
  25.2500        10
  25.3000         8
  25.3500        19
  25.4000        15
  25.4500        16
  25.5000        11
  25.5500         5
  25.6000         9
  25.6500        15
  25.7000        24
  25.7500        15
  25.8000        18
  25.8500         8
  25.9000         6
  25.9500        15
  26.0000        25
  26.0500        14
  26.1000         9
  26.1500         9
  26.2000        11
  26.2500        10
  26.3000        11
  26.3500        23
  26.4000        14
  26.4500        16
  26.5000        12
  26.5500        11
  26.6000        13
  26.6500        19
  26.7000        12
  26.7500        17
  26.8000        21
  26.8500        22
  26.9000        20
  26.9500        15
  27.0000        14
  27.0500        13
  27.1000        13
  27.1500        17
  27.2000        13
  27.2500        23
  27.3000        19
  27.3500        19
  27.4000        15
  27.4500        16
  27.5000        14
  27.5500        14
  27.6000        18
  27.6500        16
  27.7000        12
  27.7500        21
  27.8000        22
  27.8500        11
  27.9000        17
  27.9500        20
  28.0000        18
  28.0500        16
  28.1000        16
  28.1500        17
  28.2000        19
  28.2500        25
  28.3000        17
  28.3500        20
  28.4000        19
  28.4500        23
  28.5000        26
  28.5500        18
  28.6000        15
  28.6500        14
  28.7000        15
  28.7500        21
  28.8000         9
  28.8500        13
  28.9000        17
  28.9500        10
  29.0000        17
  29.0500        17
  29.1000        14
  29.1500        17
  29.2000        15
  29.2500        10
  29.3000        25
  29.3500        12
  29.4000        14
  29.4500        17
  29.5000        19
  29.5500        21
  29.6000        19
  29.6500        23
  29.7000        15
  29.7500        26
  29.8000        12
  29.8500        26
  29.9000        27
  29.9500        23
  30.0000        20
  30.0500        23
  30.1000        19
  30.1500        17
  30.2000        17
  30.2500        32
  30.3000        16
  30.3500        16
  30.4000        27
  30.4500        46
  30.5000        29
  30.5500        36
  30.6000        41
  30.6500        48
  30.7000        60
  30.7500        70
  30.8000        51
  30.8500        48
  30.9000        47
  30.9500        47
  31.0000        63
  31.0500        58
  31.1000        89
  31.1500       133
  31.2000       269
  31.2500       525
  31.3000      1042
  31.3500      1449
  31.4000      1539
  31.4500      1336
  31.5000       833
  31.5500       401
  31.6000       178
  31.6500        85
  31.7000        57
  31.7500        46
  31.8000        41
  31.8500        35
  31.9000        50
  31.9500        52
  32.0000        86
  32.0500       118
  32.1000       137
  32.1500       169
  32.2000       115
  32.2500        63
  32.3000        42
  32.3500        30
  32.4000        24
  32.4500        28
  32.5000        22
  32.5500        27
  32.6000        17
  32.6500        20
  32.7000        24
  32.7500        26
  32.8000        23
  32.8500        18
  32.9000        17
  32.9500        27
  33.0000        16
  33.0500        14
  33.1000        16
  33.1500        15
  33.2000        16
  33.2500        30
  33.3000        21
  33.3500        10
  33.4000        17
  33.4500        31
  33.5000        28
  33.5500        15
  33.6000        21
  33.6500        15
  33.7000        15
  33.7500        13
  33.8000        19
  33.8500        24
  33.9000        15
  33.9500        18
  34.0000        14
  34.0500        22
  34.1000        22
  34.1500        30
  34.2000        15
  34.2500        19
  34.3000        15
  34.3500        17
  34.4000        17
  34.4500        15
  34.5000        14
  34.5500        11
  34.6000        25
  34.6500        13
  34.7000        21
  34.7500        15
  34.8000        19
  34.8500        21
  34.9000        17
  34.9500        25
  35.0000        23
  35.0500        17
  35.1000        19
  35.1500        19
  35.2000        22
  35.2500        24
  35.3000        23
  35.3500        22
  35.4000        28
  35.4500        19
  35.5000        26
  35.5500        21
  35.6000        20
  35.6500        32
  35.7000        21
  35.7500        26
  35.8000        18
  35.8500        28
  35.9000        31
  35.9500        27
  36.0000        41
  36.0500        39
  36.1000        65
  36.1500       121
  36.2000       188
  36.2500       375
  36.3000       580
  36.3500       674
  36.4000       753
  36.4500       619
  36.5000       386
  36.5500       233
  36.6000       129
  36.6500        81
  36.7000        42
  36.7500        18
  36.8000        30
  36.8500        26
  36.9000        22
  36.9500        20
  37.0000        20
  37.0500        31
  37.1000        20
  37.1500        19
  37.2000        25
  37.2500        22
  37.3000        18
  37.3500        17
  37.4000        21
  37.4500         9
  37.5000        13
  37.5500        19
  37.6000        15
  37.6500        17
  37.7000        12
  37.7500        14
  37.8000        15
  37.8500        15
  37.9000        17
  37.9500         9
  38.0000        22
  38.0500        19
  38.1000        15
  38.1500        16
  38.2000        16
  38.2500        11
  38.3000        16
  38.3500        16
  38.4000        14
  38.4500        13
  38.5000        27
  38.5500        39
  38.6000        40
  38.6500        33
  38.7000        23
  38.7500        31
  38.8000        17
  38.8500        13
  38.9000        11
  38.9500        10
  39.0000        15
  39.0500        18
  39.1000        19
  39.1500        10
  39.2000        15
  39.2500        22
  39.3000        14
  39.3500        13
  39.4000        16
  39.4500        19
  39.5000        17
  39.5500        13
  39.6000        10
  39.6500        13
  39.7000        19
  39.7500        15
  39.8000        13
  39.8500        10
  39.9000        17
  39.9500        13
  40.0000         6
  40.0500        13
  40.1000        17
  40.1500        10
  40.2000        17
  40.2500        15
  40.3000        15
  40.3500        11
  40.4000        16
  40.4500        11
  40.5000        13
  40.5500        13
  40.6000        14
  40.6500        15
  40.7000        16
  40.7500        15
  40.8000         7
  40.8500        17
  40.9000         8
  40.9500         9
  41.0000         8
  41.0500        12
  41.1000        15
  41.1500        13
  41.2000        13
  41.2500        22
  41.3000        11
  41.3500        14
  41.4000        16
  41.4500        13
  41.5000         5
  41.5500        19
  41.6000        13
  41.6500        13
  41.7000        16
  41.7500        14
  41.8000        15
  41.8500        17
  41.9000         7
  41.9500        21
  42.0000        14
  42.0500        19
  42.1000        14
  42.1500        15
  42.2000        18
  42.2500        10
  42.3000        13
  42.3500        12
  42.4000        16
  42.4500        13
  42.5000        13
  42.5500        10
  42.6000        21
  42.6500        19
  42.7000        12
  42.7500        12
  42.8000        21
  42.8500        12
  42.9000        10
  42.9500        13
  43.0000        15
  43.0500        20
  43.1000        15
  43.1500        16
  43.2000        17
  43.2500        15
  43.3000        19
  43.3500        23
  43.4000        10
  43.4500        15
  43.5000        12
  43.5500        16
  43.6000        13
  43.6500        14
  43.7000        13
  43.7500        10
  43.8000        13
  43.8500        22
  43.9000        22
  43.9500        25
  44.0000        34
  44.0500        31
  44.1000        24
  44.1500        13
  44.2000        12
  44.2500        12
  44.3000        11
  44.3500        21
  44.4000        17
  44.4500        15
  44.5000         8
  44.5500        15
  44.6000        14
  44.6500        15
  44.7000        17
  44.7500        17
  44.8000        16
  44.8500        31
  44.9000        61
  44.9500        75
  45.0000        74
  45.0500        57
  45.1000        56
  45.1500        37
  45.2000        30
  45.2500        15
  45.3000        14
  45.3500        13
  45.4000        17
  45.4500        15
  45.5000         8
  45.5500        20
  45.6000        18
  45.6500         6
  45.7000        13
  45.7500        11
  45.8000         7
  45.8500        12
  45.9000        13
  45.9500        16
  46.0000        12
  46.0500        19
  46.1000        17
  46.1500         8
  46.2000        10
  46.2500        15
  46.3000        17
  46.3500        16
  46.4000         9
  46.4500        13
  46.5000        18
  46.5500        13
  46.6000        11
  46.6500         9
  46.7000        14
  46.7500        19
  46.8000        16
  46.8500        17
  46.9000        13
  46.9500        15
  47.0000        10
  47.0500        13
  47.1000         8
  47.1500         8
  47.2000        18
  47.2500        13
  47.3000        17
  47.3500         7
  47.4000        17
  47.4500        11
  47.5000        13
  47.5500        13
  47.6000        14
  47.6500        12
  47.7000        20
  47.7500        15
  47.8000        12
  47.8500        16
  47.9000        11
  47.9500        15
  48.0000        11
  48.0500        14
  48.1000         8
  48.1500         8
  48.2000        12
  48.2500        15
  48.3000        16
  48.3500        13
  48.4000        10
  48.4500        11
  48.5000        19
  48.5500        12
  48.6000        13
  48.6500        16
  48.7000         8
  48.7500        17
  48.8000         9
  48.8500        15
  48.9000        12
  48.9500        16
  49.0000        16
  49.0500        14
  49.1000        14
  49.1500        12
  49.2000        11
  49.2500        11
  49.3000        13
  49.3500        19
  49.4000        15
  49.4500         7
  49.5000        13
  49.5500         9
  49.6000        14
  49.6500        15
  49.7000        11
  49.7500        17
  49.8000         8
  49.8500        10
  49.9000        13
  49.9500        11
  50.0000         3
  50.0500        21
  50.1000        16
  50.1500        13
  50.2000        25
  50.2500        14
  50.3000        16
  50.3500        10
  50.4000        13
  50.4500        15
  50.5000        16
  50.5500        17
  50.6000        15
  50.6500        33
  50.7000        16
  50.7500        25
  50.8000        15
  50.8500        17
  50.9000        15
  50.9500        20
  51.0000        20
  51.0500        16
  51.1000        14
  51.1500        18
  51.2000        13
  51.2500        19
  51.3000        12
  51.3500        17
  51.4000        19
  51.4500        16
  51.5000        14
  51.5500        18
  51.6000        17
  51.6500        18
  51.7000        27
  51.7500        22
  51.8000        23
  51.8500        17
  51.9000        17
  51.9500        16
  52.0000        24
  52.0500        33
  52.1000        51
  52.1500        63
  52.2000       114
  52.2500       254
  52.3000       373
  52.3500       425
  52.4000       439
  52.4500       336
  52.5000       257
  52.5500       161
  52.6000        83
  52.6500        66
  52.7000        26
  52.7500        33
  52.8000        20
  52.8500        30
  52.9000        19
  52.9500        24
  53.0000        18
  53.0500        22
  53.1000        19
  53.1500        15
  53.2000         8
  53.2500        19
  53.3000        12
  53.3500        21
  53.4000        20
  53.4500         9
  53.5000        14
  53.5500        13
  53.6000        13
  53.6500        17
  53.7000        14
  53.7500        18
  53.8000        19
  53.8500        16
  53.9000        17
  53.9500        21
  54.0000        21
  54.0500        16
  54.1000        22
  54.1500        18
  54.2000        19
  54.2500        18
  54.3000        14
  54.3500        20
  54.4000        11
  54.4500        16
  54.5000        15
  54.5500        15
  54.6000        12
  54.6500        17
  54.7000        16
  54.7500        20
  54.8000        16
  54.8500        15
  54.9000        16
  54.9500        25
  55.0000        10
  55.0500        12
  55.1000        20
  55.1500        16
  55.2000        18
  55.2500        16
  55.3000        32
  55.3500        33
  55.4000        22
  55.4500        34
  55.5000        28
  55.5500        26
  55.6000        17
  55.6500        18
  55.7000        23
  55.7500        17
  55.8000        17
  55.8500        17
  55.9000        13
  55.9500        22
  56.0000        18
  56.0500        18
  56.1000        13
  56.1500        16
  56.2000        18
  56.2500        14
  56.3000        23
  56.3500         8
  56.4000        10
  56.4500        13
  56.5000        21
  56.5500        16
  56.6000        19
  56.6500        15
  56.7000        11
  56.7500        13
  56.8000        15
  56.8500        10
  56.9000        16
  56.9500        14
  57.0000        13
  57.0500        19
  57.1000        22
  57.1500        11
  57.2000        17
  57.2500        18
  57.3000        15
  57.3500        16
  57.4000        15
  57.4500        19
  57.5000        15
  57.5500        17
  57.6000        16
  57.6500        17
  57.7000        15
  57.7500        21
  57.8000        17
  57.8500        23
  57.9000        16
  57.9500        23
  58.0000        13
  58.0500        14
  58.1000        12
  58.1500        12
  58.2000        17
  58.2500        14
  58.3000        15
  58.3500        19
  58.4000        14
  58.4500        13
  58.5000        23
  58.5500        13
  58.6000        20
  58.6500        11
  58.7000        19
  58.7500        15
  58.8000        17
  58.8500        18
  58.9000        12
  58.9500        11
  59.0000        16
  59.0500        15
  59.1000        17
  59.1500        12
  59.2000        20
  59.2500        13
  59.3000        16
  59.3500        21
  59.4000        16
  59.4500        20
  59.5000        21
  59.5500        13
  59.6000        16
  59.6500        19
  59.7000        22
  59.7500        14
  59.8000        19
  59.8500        22
  59.9000        22
  59.9500        22
  60.0000        23
  60.0500        16
  60.1000        19
  60.1500        14
  60.2000        21
  60.2500        19
  60.3000        21
  60.3500        12
  60.4000        22
  60.4500        23
  60.5000        14
  60.5500        15
  60.6000        17
  60.6500        22
  60.7000        20
  60.7500        23
  60.8000        13
  60.8500        23
  60.9000        23
  60.9500        25
  61.0000        22
  61.0500        19
  61.1000        25
  61.1500        22
  61.2000        28
  61.2500        26
  61.3000        24
  61.3500        29
  61.4000        24
  61.4500        19
  61.5000        19
  61.5500        17
  61.6000        21
  61.6500        22
  61.7000        22
  61.7500        24
  61.8000        30
  61.8500        28
  61.9000        42
  61.9500        45
  62.0000        51
  62.0500        70
  62.1000       106
  62.1500       217
  62.2000       322
  62.2500       382
  62.3000       389
  62.3500       343
  62.4000       262
  62.4500       227
  62.5000       180
  62.5500        98
  62.6000        72
  62.6500        57
  62.7000        45
  62.7500        35
  62.8000        33
  62.8500        32
  62.9000        26
  62.9500        26
  63.0000        23
  63.0500        19
  63.1000        15
  63.1500        24
  63.2000        15
  63.2500        17
  63.3000        12
  63.3500        15
  63.4000        23
  63.4500        14
  63.5000        20
  63.5500        20
  63.6000        24
  63.6500        14
  63.7000        26
  63.7500        27
  63.8000        15
  63.8500        21
  63.9000        13
  63.9500        15
  64.0000        17
  64.0500        16
  64.1000        25
  64.1500        21
  64.2000        15
  64.2500        21
  64.3000        21
  64.3500        15
  64.4000        23
  64.4500        17
  64.5000        22
  64.5500        31
  64.6000        39
  64.6500        32
  64.7000        27
  64.7500        26
  64.8000        27
  64.8500        26
  64.9000        21
  64.9500        25
  65.0000        23
  65.0500        22
  65.1000        21
  65.1500        36
  65.2000        53
  65.2500        79
  65.3000       120
  65.3500       155
  65.4000       153
  65.4500       128
  65.5000       119
  65.5500        87
  65.6000        65
  65.6500        50
  65.7000        23
  65.7500        18
  65.8000        18
  65.8500        15
  65.9000        16
  65.9500        19
  66.0000        19
  66.0500        19
  66.1000        17
  66.1500        17
  66.2000        24
  66.2500        12
  66.3000        19
  66.3500        12
  66.4000        21
  66.4500        12
  66.5000        17
  66.5500        15
  66.6000        20
  66.6500        16
  66.7000        12
  66.7500        25
  66.8000        14
  66.8500        20
  66.9000        15
  66.9500        21
  67.0000        14
  67.0500        12
  67.1000        26
  67.1500        18
  67.2000        13
  67.2500         8
  67.3000        19
  67.3500        11
  67.4000        10
  67.4500        13
  67.5000        15
  67.5500        15
  67.6000        17
  67.6500        13
  67.7000        15
  67.7500        12
  67.8000        17
  67.8500        14
  67.9000        15
  67.9500        16
  68.0000        22
  68.0500        14
  68.1000        14
  68.1500        23
  68.2000        10
  68.2500        12
  68.3000         7
  68.3500        13
  68.4000        12
  68.4500        17
  68.5000        17
  68.5500        11
  68.6000        10
  68.6500        14
  68.7000        16
  68.7500        19
  68.8000        21
  68.8500        19
  68.9000        13
  68.9500        12
  69.0000        17
  69.0500         8
  69.1000        11
  69.1500        11
  69.2000        12
  69.2500        12
  69.3000         9
  69.3500        11
  69.4000        15
  69.4500        14
  69.5000        18
  69.5500        17
  69.6000        13
  69.6500        18
  69.7000         7
  69.7500        22
  69.8000        15
  69.8500        20
  69.9000        11
  69.9500        17
  70.0000        13
  70.0500        17
  70.1000        17
  70.1500        18
  70.2000        11
  70.2500         4
  70.3000        11
  70.3500        14
  70.4000        16
  70.4500        18
  70.5000         9
  70.5500         9
  70.6000        19
  70.6500        16
  70.7000        22
  70.7500        13
  70.8000        15
  70.8500        13
  70.9000        21
  70.9500         9
  71.0000         8
  71.0500         9
  71.1000        12
  71.1500        19
  71.2000        13
  71.2500        12
  71.3000         9
  71.3500        10
  71.4000        19
  71.4500        10
  71.5000        11
  71.5500        11
  71.6000        11
  71.6500        11
  71.7000        11
  71.7500        13
  71.8000        12
  71.8500        15
  71.9000         8
  71.9500        13
  72.0000        12
  72.0500        12
  72.1000        15
  72.1500        15
  72.2000        19
  72.2500         6
  72.3000        19
  72.3500         9
  72.4000        21
  72.4500        18
  72.5000        15
  72.5500        20
  72.6000        13
  72.6500        29
  72.7000        19
  72.7500        12
  72.8000        19
  72.8500         7
  72.9000        18
  72.9500        12
  73.0000        17
  73.0500        24
  73.1000        14
  73.1500        22
  73.2000        18
  73.2500        23
  73.3000        14
  73.3500        14
  73.4000        15
  73.4500        20
  73.5000        16
  73.5500         9
  73.6000        14
  73.6500         6
  73.7000        16
  73.7500        10
  73.8000        10
  73.8500        20
  73.9000        14
  73.9500        17
  74.0000        21
  74.0500        14
  74.1000        11
  74.1500        13
  74.2000        10
  74.2500        15
  74.3000        16
  74.3500        10
  74.4000        15
  74.4500        15
  74.5000        14
  74.5500        12
  74.6000        12
  74.6500        10
  74.7000        20
  74.7500        10
  74.8000        15
  74.8500         8
  74.9000        14
  74.9500        12
  75.0000        18
  75.0500        16
  75.1000        15
  75.1500         6
  75.2000        15
  75.2500        14
  75.3000        14
  75.3500         9
  75.4000         9
  75.4500        13
  75.5000        13
  75.5500        12
  75.6000        16
  75.6500        15
  75.7000        13
  75.7500        21
  75.8000        18
  75.8500        15
  75.9000        12
  75.9500        10
  76.0000        18
  76.0500        13
  76.1000        23
  76.1500        11
  76.2000        17
  76.2500        17
  76.3000        15
  76.3500        12
  76.4000        14
  76.4500        11
  76.5000        15
  76.5500        16
  76.6000        10
  76.6500        17
  76.7000         9
  76.7500        13
  76.8000        19
  76.8500        20
  76.9000        18
  76.9500        33
  77.0000        27
  77.0500        42
  77.1000        39
  77.1500        46
  77.2000        26
  77.2500        28
  77.3000        38
  77.3500        31
  77.4000        24
  77.4500        29
  77.5000        23
  77.5500        18
  77.6000         6
  77.6500        11
  77.7000        17
  77.7500        13
  77.8000        10
  77.8500        14
  77.9000        17
  77.9500        13
  78.0000        10
  78.0500        15
  78.1000        17
  78.1500        18
  78.2000        16
  78.2500        12
  78.3000        14
  78.3500        11
  78.4000        10
  78.4500        14
  78.5000        10
  78.5500        12
  78.6000        13
  78.6500        13
  78.7000        10
  78.7500        14
  78.8000        15
  78.8500        10
  78.9000        21
  78.9500        15
  79.0000         9
  79.0500        12
  79.1000        17
  79.1500         5
  79.2000        11
  79.2500        13
  79.3000        22
  79.3500        16
  79.4000        14
  79.4500        24
  79.5000        36
  79.5500        33
  79.6000        24
  79.6500        24
  79.7000        24
  79.7500        19
  79.8000        28
  79.8500         8
  79.9000        18
  79.9500        14
  80.0000        11
  80.0500        21
  80.1000        20
  80.1500        11
  80.2000        13
  80.2500        10
  80.3000        16
  80.3500        24
  80.4000        13
  80.4500        16
  80.5000        17
  80.5500        16
  80.6000        13
  80.6500        12
  80.7000        15
  80.7500         7
  80.8000         6
  80.8500        11
  80.9000        10
  80.9500        16
  81.0000        14
  81.0500        17
  81.1000        21
  81.1500        14
  81.2000        13
  81.2500        14
  81.3000         8
  81.3500        17
  81.4000        12
  81.4500        14
  81.5000        13
  81.5500        19
  81.6000        17
  81.6500        13
  81.7000        17
  81.7500        13
  81.8000        10
  81.8500        18
  81.9000         8
  81.9500        16
  82.0000        16
  82.0500        21
  82.1000        11
  82.1500        14
  82.2000        12
  82.2500        16
  82.3000        11
  82.3500        11
  82.4000        10
  82.4500        16
  82.5000        17
  82.5500        16
  82.6000        19
  82.6500        27
  82.7000        11
  82.7500        13
  82.8000        10
  82.8500         5
  82.9000        13
  82.9500        10
  83.0000        18
  83.0500        13
  83.1000        14
  83.1500        20
  83.2000        15
  83.2500        24
  83.3000        18
  83.3500        13
  83.4000         9
  83.4500        14
  83.5000        12
  83.5500        16
  83.6000        25
  83.6500        12
  83.7000        12
  83.7500        15
  83.8000        17
  83.8500        22
  83.9000        16
  83.9500        10
  84.0000        17
  84.0500        20
  84.1000        12
  84.1500        14
  84.2000        14
  84.2500        16
  84.3000        18
  84.3500        19
  84.4000        18
  84.4500        17
  84.5000        14
  84.5500        16
  84.6000        17
  84.6500        21
  84.7000        20
  84.7500        20
  84.8000        20
  84.8500        24
  84.9000        17
  84.9500        16
  85.0000        19
  85.0500        23
  85.1000        24
  85.1500        21
  85.2000        20
  85.2500        19
  85.3000        30
  85.3500        33
  85.4000        45
  85.4500        74
  85.5000       101
  85.5500       113
  85.6000       108
  85.6500        73
  85.7000        61
  85.7500        76
  85.8000        78
  85.8500        76
  85.9000        58
  85.9500        30
  86.0000        24
  86.0500        20
  86.1000        25
  86.1500        13
  86.2000        16
  86.2500        25
  86.3000        23
  86.3500        16
  86.4000        21
  86.4500        18
  86.5000        19
  86.5500        19
  86.6000        21
  86.6500        17
  86.7000        15
  86.7500        16
  86.8000         8
  86.8500        18
  86.9000        18
  86.9500        20
  87.0000        30
  87.0500        19
  87.1000        13
  87.1500        18
  87.2000        21
  87.2500        20
  87.3000        12
  87.3500        16
  87.4000        16
  87.4500        25
  87.5000        18
  87.5500        19
  87.6000        16
  87.6500        15
  87.7000        18
  87.7500        14
  87.8000        21
  87.8500        26
  87.9000        21
  87.9500        20
  88.0000        15
  88.0500        22
  88.1000        22
  88.1500        37
  88.2000        47
  88.2500        98
  88.3000        88
  88.3500       118
  88.4000       101
  88.4500        56
  88.5000        68
  88.5500        63
  88.6000        60
  88.6500        61
  88.7000        34
  88.7500        32
  88.8000        22
  88.8500        21
  88.9000        25
  88.9500        18
  89.0000        16
  89.0500        13
  89.1000        19
  89.1500        12
  89.2000        20
  89.2500        10
  89.3000        19
  89.3500        13
  89.4000        14
  89.4500        26
  89.5000        11
  89.5500        16
  89.6000        12
  89.6500        17
  89.7000        16
  89.7500        22
  89.8000        14
  89.8500         9
  89.9000        18
  89.9500        18
  90.0000        11
  90.0500        16
  90.1000        17
  90.1500        14
  90.2000        23
  90.2500        14
  90.3000        14
  90.3500        16
  90.4000        21
  90.4500        15
  90.5000        12
  90.5500        16
  90.6000        16
  90.6500        14
  90.7000        18
  90.7500        16
  90.8000        14
  90.8500        16
  90.9000        22
  90.9500        11
  91.0000        12
  91.0500        15
  91.1000        13
  91.1500        10
  91.2000        22
  91.2500        12
  91.3000        14
  91.3500        14
  91.4000        19
  91.4500        21
  91.5000        10
  91.5500        14
  91.6000        10
  91.6500        10
  91.7000        12
  91.7500         6
  91.8000        23
  91.8500        18
  91.9000        14
  91.9500         7
  92.0000         8
  92.0500        10
  92.1000        14
  92.1500        10
  92.2000        16
  92.2500        15
  92.3000        11
  92.3500        16
  92.4000        15
  92.4500        15
  92.5000        16
  92.5500        15
  92.6000        21
  92.6500        24
  92.7000        23
  92.7500        21
  92.8000        20
  92.8500        14
  92.9000        26
  92.9500        10
  93.0000        17
  93.0500        12
  93.1000        14
  93.1500        21
  93.2000        11
  93.2500        11
  93.3000        11
  93.3500        12
  93.4000        14
  93.4500         8
  93.5000        16
  93.5500         8
  93.6000        14
  93.6500         9
  93.7000        13
  93.7500        15
  93.8000        17
  93.8500        16
  93.9000        17
  93.9500        17
  94.0000        13
  94.0500        14
  94.1000        16
  94.1500        12
  94.2000        10
  94.2500        17
  94.3000        16
  94.3500        11
  94.4000        10
  94.4500        13
  94.5000        11
  94.5500        12
  94.6000        16
  94.6500        17
  94.7000        19
  94.7500        19
  94.8000        15
  94.8500        13
  94.9000        15
  94.9500        19
  95.0000        12
  95.0500        23
  95.1000        21
  95.1500        16
  95.2000        17
  95.2500        15
  95.3000        15
  95.3500         8
  95.4000        13
  95.4500        19
  95.5000        14
  95.5500        27
  95.6000        22
  95.6500        13
  95.7000        17
  95.7500        13
  95.8000        19
  95.8500        20
  95.9000        20
  95.9500        19
  96.0000        24
  96.0500        12
  96.1000        22
  96.1500        13
  96.2000        22
  96.2500        21
  96.3000        20
  96.3500        15
  96.4000        13
  96.4500        18
  96.5000        22
  96.5500        14
  96.6000        18
  96.6500        20
  96.7000        14
  96.7500        16
  96.8000        17
  96.8500        19
  96.9000        10
  96.9500        13
  97.0000        18
  97.0500        11
  97.1000        10
  97.1500        13
  97.2000        11
  97.2500        16
  97.3000         8
  97.3500        23
  97.4000        12
  97.4500        19
  97.5000        23
  97.5500        21
  97.6000        17
  97.6500        20
  97.7000        13
  97.7500        17
  97.8000        18
  97.8500        16
  97.9000        17
  97.9500        15
  98.0000        16
  98.0500        19
  98.1000        14
  98.1500        16
  98.2000         8
  98.2500        16
  98.3000        18
  98.3500        13
  98.4000        14
  98.4500        15
  98.5000        18
  98.5500        24
  98.6000        18
  98.6500        15
  98.7000        19
  98.7500        13
  98.8000        19
  98.8500        14
  98.9000        13
  98.9500        30
  99.0000        15
  99.0500        11
  99.1000        19
  99.1500        18
  99.2000        21
  99.2500        20
  99.3000        38
  99.3500        42
  99.4000        63
  99.4500        75
  99.5000        69
  99.5500        77
  99.6000        41
  99.6500        43
  99.7000        32
  99.7500        41
  99.8000        45
  99.8500        34
  99.9000        46
  99.9500        23
 100.0000        24
 100.0500        16
 100.1000        18
 100.1500        14
 100.2000        15
 100.2500        21
 100.3000        18
 100.3500        16
 100.4000        16
 100.4500        20
 100.5000        17
 100.5500        13
 100.6000        18
 100.6500        12
 100.7000        20
 100.7500        17
 100.8000        10
 100.8500        13
 100.9000        15
 100.9500        13
 101.0000        13
 101.0500        16
 101.1000         9
 101.1500        13
 101.2000        13
 101.2500        18
 101.3000        12
 101.3500        13
 101.4000        16
 101.4500        14
 101.5000        15
 101.5500        11
 101.6000        15
 101.6500        11
 101.7000        24
 101.7500        13
 101.8000        16
 101.8500        13
 101.9000        28
 101.9500        16
 102.0000        18
 102.0500        19
 102.1000        16
 102.1500        12
 102.2000        20
 102.2500        20
 102.3000        12
 102.3500        18
 102.4000        17
 102.4500        15
 102.5000        13
 102.5500        13
 102.6000        14
 102.6500        17
 102.7000        12
 102.7500        14
 102.8000        11
 102.8500         8
 102.9000        14
 102.9500        18
 103.0000        15
 103.0500         9
 103.1000        14
 103.1500        16
 103.2000        19
 103.2500        17
 103.3000        22
 103.3500        22
 103.4000        23
 103.4500        14
 103.5000        20
 103.5500        11
 103.6000        25
 103.6500        25
 103.7000        12
 103.7500        23
 103.8000        27
 103.8500        14
 103.9000        10
 103.9500        18
 104.0000        19
 104.0500        24
 104.1000        16
 104.1500        14
 104.2000         9
 104.2500        15
 104.3000        14
 104.3500        13
 104.4000        17
 104.4500        14
 104.5000        14
 104.5500        14
 104.6000        19
 104.6500        21
 104.7000        16
 104.7500        18
 104.8000        18
 104.8500        18
 104.9000        12
 104.9500        13
 105.0000        14
 105.0500        20
 105.1000        26
 105.1500        20
 105.2000        23
 105.2500        13
 105.3000        12
 105.3500        12
 105.4000        17
 105.4500        11
 105.5000        14
 105.5500        16
 105.6000        20
 105.6500        22
 105.7000        18
 105.7500        15
 105.8000        12
 105.8500        18
 105.9000        18
 105.9500        14
 106.0000        19
 106.0500        18
 106.1000        13
 106.1500        12
 106.2000        21
 106.2500        12
 106.3000        23
 106.3500        10
 106.4000        15
 106.4500        20
 106.5000        23
 106.5500        17
 106.6000        14
 106.6500        14
 106.7000        16
 106.7500        26
 106.8000        12
 106.8500        19
 106.9000        15
 106.9500        21
 107.0000         9
 107.0500        16
 107.1000        21
 107.1500        19
 107.2000        15
 107.2500        20
 107.3000        20
 107.3500        13
 107.4000        16
 107.4500        21
 107.5000        17
 107.5500        17
 107.6000        22
 107.6500        23
 107.7000        19
 107.7500        17
 107.8000        37
 107.8500        30
 107.9000        45
 107.9500        41
 108.0000        64
 108.0500        80
 108.1000        77
 108.1500        70
 108.2000        49
 108.2500        59
 108.3000        32
 108.3500        38
 108.4000        49
 108.4500        57
 108.5000        55
 108.5500        41
 108.6000        40
 108.6500        16
 108.7000        19
 108.7500        26
 108.8000        22
 108.8500        14
 108.9000        16
 108.9500        19
 109.0000        17
 109.0500        14
 109.1000        12
 109.1500        17
 109.2000        13
 109.2500         9
 109.3000        21
 109.3500        12
 109.4000        15
 109.4500        19
 109.5000        15
 109.5500        15
 109.6000        17
 109.6500        15
 109.7000        16
 109.7500        16
 109.8000        16
 109.8500        15
 109.9000        18
 109.9500        17
 110.0000        17
