  10.0000        50
  10.0500        49
  10.1000        63
  10.1500        79
  10.2000        68
  10.2500        47
  10.3000        47
  10.3500        36
  10.4000        41
  10.4500        33
  10.5000        31
  10.5500        33
  10.6000        31
  10.6500        37
  10.7000        24
  10.7500        24
  10.8000        26
  10.8500        27
  10.9000        25
  10.9500        29
  11.0000        11
  11.0500        20
  11.1000        15
  11.1500        16
  11.2000        22
  11.2500        29
  11.3000        21
  11.3500        12
  11.4000        13
  11.4500        18
  11.5000        17
  11.5500        18
  11.6000        21
  11.6500        27
  11.7000        18
  11.7500        23
  11.8000        15
  11.8500        17
  11.9000        21
  11.9500        24
  12.0000        17
  12.0500        21
  12.1000        21
  12.1500        17
  12.2000        20
  12.2500        20
  12.3000        17
  12.3500        27
  12.4000        20
  12.4500        13
  12.5000        23
  12.5500        21
  12.6000        15
  12.6500        14
  12.7000        14
  12.7500        14
  12.8000        21
  12.8500        22
  12.9000        19
  12.9500        13
  13.0000        10
  13.0500        21
  13.1000        13
  13.1500        19
  13.2000        18
  13.2500        20
  13.3000        21
  13.3500         7
  13.4000        19
  13.4500        23
  13.5000        20
  13.5500        19
  13.6000        22
  13.6500        23
  13.7000        20
  13.7500        23
  13.8000        21
  13.8500        19
  13.9000        24
  13.9500        20
  14.0000        33
  14.0500        25
  14.1000        22
  14.1500        25
  14.2000        17
  14.2500        48
  14.3000        61
  14.3500        36
  14.4000        50
  14.4500        32
  14.5000        25
  14.5500        23
  14.6000        16
  14.6500        20
  14.7000        16
  14.7500        20
  14.8000        14
  14.8500        20
  14.9000        21
  14.9500         8
  15.0000        20
  15.0500        18
  15.1000        12
  15.1500        14
  15.2000        15
  15.2500        19
  15.3000        24
  15.3500        20
  15.4000        16
  15.4500        11
  15.5000        18
  15.5500        12
  15.6000        14
  15.6500        20
  15.7000        18
  15.7500        25
  15.8000        18
  15.8500        16
  15.9000        15
  15.9500        21
  16.0000        16
  16.0500        22
  16.1000        13
  16.1500        19
  16.2000        13
  16.2500        16
  16.3000        12
  16.3500        15
  16.4000        10
  16.4500        13
  16.5000        16
  16.5500        13
  16.6000        15
  16.6500        19
  16.7000        19
  16.7500        19
  16.8000        14
  16.8500        12
  16.9000        17
  16.9500        22
  17.0000        21
  17.0500        12
  17.1000        17
  17.1500        10
  17.2000        18
  17.2500        15
  17.3000        21
  17.3500         9
  17.4000        21
  17.4500        12
  17.5000        15
  17.5500        15
  17.6000        11
  17.6500        16
  17.7000        14
  17.7500        17
  17.8000        20
  17.8500        12
  17.9000        21
  17.9500        15
  18.0000        15
  18.0500        12
  18.1000        11
  18.1500        27
  18.2000        18
  18.2500        11
  18.3000        19
  18.3500        15
  18.4000        13
  18.4500        16
  18.5000        14
  18.5500        15
  18.6000        13
  18.6500        17
  18.7000         7
  18.7500         9
  18.8000        17
  18.8500         9
  18.9000        10
  18.9500        11
  19.0000        12
  19.0500        16
  19.1000        14
  19.1500        20
  19.2000        19
  19.2500        16
  19.3000        16
  19.3500        21
  19.4000        12
  19.4500        17
  19.5000        19
  19.5500        25
  19.6000        15
  19.6500        19
  19.7000        25
  19.7500        16
  19.8000        15
  19.8500        28
  19.9000        27
  19.9500        18
  20.0000        20
  20.0500        31
  20.1000        28
  20.1500        17
  20.2000        17
  20.2500        23
  20.3000        27
  20.3500        22
  20.4000        13
  20.4500        31
  20.5000        25
  20.5500        21
  20.6000        21
  20.6500        23
  20.7000        15
  20.7500        17
  20.8000        24
  20.8500        23
  20.9000        16
  20.9500        18
  21.0000        19
  21.0500        19
  21.1000        16
  21.1500        23
  21.2000        20
  21.2500        25
  21.3000        13
  21.3500        19
  21.4000        17
  21.4500        17
  21.5000        14
  21.5500        24
  21.6000        15
  21.6500        20
  21.7000        22
  21.7500        12
  21.8000        20
  21.8500        30
  21.9000        11
  21.9500        19
  22.0000        16
  22.0500        22
  22.1000        26
  22.1500        23
  22.2000        23
  22.2500        26
  22.3000        22
  22.3500        19
  22.4000        22
  22.4500        12
  22.5000        19
  22.5500        16
  22.6000        14
  22.6500        20
  22.7000        15
  22.7500        17
  22.8000        22
  22.8500        19
  22.9000        20
  22.9500        27
  23.0000        34
  23.0500        36
  23.1000        32
  23.1500        32
  23.2000        29
  23.2500        23
  23.3000        34
  23.3500        23
  23.4000        26
  23.4500        19
  23.5000        22
  23.5500        18
  23.6000        20
  23.6500        28
  23.7000        21
  23.7500        26
  23.8000        22
  23.8500        20
  23.9000        26
  23.9500        26
  24.0000        15
  24.0500        19
  24.1000        23
  24.1500        17
  24.2000        24
  24.2500        23
  24.3000        31
  24.3500        17
  24.4000        22
  24.4500        28
  24.5000        22
  24.5500        22
  24.6000        29
  24.6500        23
  24.7000        21
  24.7500        33
  24.8000        25
  24.8500        26
  24.9000        33
  24.9500        36
  25.0000        19
  25.0500        28
  25.1000        26
  25.1500        19
  25.2000        21
  25.2500        29
  25.3000        31
  25.3500        31
  25.4000        26
  25.4500        23
  25.5000        34
  25.5500        21
  25.6000        28
  25.6500        20
  25.7000        16
  25.7500        23
  25.8000        13
  25.8500        21
  25.9000        23
  25.9500        28
  26.0000        22
  26.0500        24
  26.1000        23
  26.1500        22
  26.2000        25
  26.2500        20
  26.3000        20
  26.3500        26
  26.4000        22
  26.4500        20
  26.5000        33
  26.5500        26
  26.6000        24
  26.6500        36
  26.7000        27
  26.7500        28
  26.8000        24
  26.8500        32
  26.9000        30
  26.9500        37
  27.0000        28
  27.0500        31
  27.1000        26
  27.1500        30
  27.2000        25
  27.2500        35
  27.3000        41
  27.3500        35
  27.4000        32
  27.4500        34
  27.5000        20
  27.5500        28
  27.6000        40
  27.6500        24
  27.7000        37
  27.7500        45
  27.8000        26
  27.8500        29
  27.9000        31
  27.9500        29
  28.0000        33
  28.0500        42
  28.1000        43
  28.1500        37
  28.2000        53
  28.2500        47
  28.3000        67
  28.3500        53
  28.4000        51
  28.4500        52
  28.5000        44
  28.5500        42
  28.6000        35
  28.6500        32
  28.7000        24
  28.7500        19
  28.8000        36
  28.8500        17
  28.9000        20
  28.9500        25
  29.0000        20
  29.0500        27
  29.1000        21
  29.1500        24
  29.2000        26
  29.2500        26
  29.3000        21
  29.3500        29
  29.4000        27
  29.4500        29
  29.5000        23
  29.5500        30
  29.6000        36
  29.6500        26
  29.7000        23
  29.7500        26
  29.8000        30
  29.8500        27
  29.9000        31
  29.9500        27
  30.0000        33
  30.0500        36
  30.1000        41
  30.1500        40
  30.2000        45
  30.2500        43
  30.3000        46
  30.3500        56
  30.4000        67
  30.4500        75
  30.5000        54
  30.5500        76
  30.6000        71
  30.6500        79
  30.7000        67
  30.7500        56
  30.8000        45
  30.8500        64
  30.9000        82
  30.9500        85
  31.0000        98
  31.0500       174
  31.1000       236
  31.1500       478
  31.2000      1015
  31.2500      1693
  31.3000      2131
  31.3500      2002
  31.4000      1479
  31.4500       862
  31.5000       353
  31.5500       162
  31.6000        69
  31.6500        68
  31.7000        54
  31.7500        49
  31.8000        41
  31.8500        52
  31.9000        49
  31.9500        45
  32.0000        43
  32.0500        37
  32.1000        31
  32.1500        37
  32.2000        42
  32.2500        23
  32.3000        42
  32.3500        45
  32.4000        31
  32.4500        29
  32.5000        25
  32.5500        27
  32.6000        30
  32.6500        26
  32.7000        20
  32.7500        34
  32.8000        36
  32.8500        20
  32.9000        30
  32.9500        20
  33.0000        28
  33.0500        19
  33.1000        23
  33.1500        27
  33.2000        29
  33.2500        19
  33.3000        23
  33.3500        31
  33.4000        21
  33.4500        19
  33.5000        27
  33.5500        24
  33.6000        24
  33.6500        28
  33.7000        24
  33.7500        25
  33.8000        20
  33.8500        26
  33.9000        30
  33.9500        25
  34.0000        29
  34.0500        22
  34.1000        51
  34.1500        40
  34.2000        37
  34.2500        33
  34.3000        25
  34.3500        28
  34.4000        32
  34.4500        23
  34.5000        25
  34.5500        21
  34.6000        28
  34.6500        15
  34.7000        24
  34.7500        24
  34.8000        17
  34.8500        24
  34.9000        25
  34.9500        20
  35.0000        37
  35.0500        25
  35.1000        31
  35.1500        33
  35.2000        38
  35.2500        23
  35.3000        27
  35.3500        26
  35.4000        28
  35.4500        28
  35.5000        30
  35.5500        24
  35.6000        47
  35.6500        27
  35.7000        27
  35.7500        35
  35.8000        29
  35.8500        40
  35.9000        29
  35.9500        46
  36.0000        60
  36.0500        97
  36.1000       234
  36.1500       355
  36.2000       609
  36.2500       881
  36.3000       921
  36.3500       839
  36.4000       630
  36.4500       357
  36.5000       199
  36.5500        99
  36.6000        57
  36.6500        35
  36.7000        39
  36.7500        35
  36.8000        29
  36.8500        24
  36.9000        27
  36.9500        25
  37.0000        26
  37.0500        18
  37.1000        34
  37.1500        27
  37.2000        20
  37.2500        23
  37.3000        19
  37.3500        14
  37.4000        16
  37.4500        20
  37.5000        25
  37.5500        22
  37.6000        27
  37.6500        20
  37.7000        15
  37.7500        23
  37.8000        16
  37.8500        17
  37.9000        21
  37.9500        19
  38.0000        15
  38.0500        20
  38.1000        18
  38.1500        15
  38.2000        16
  38.2500        18
  38.3000        17
  38.3500        14
  38.4000        28
  38.4500        22
  38.5000        22
  38.5500        13
  38.6000        15
  38.6500        20
  38.7000        17
  38.7500        19
  38.8000        15
  38.8500        20
  38.9000        21
  38.9500        14
  39.0000        18
  39.0500        23
  39.1000        21
  39.1500        22
  39.2000        20
  39.2500        15
  39.3000        17
  39.3500        14
  39.4000        21
  39.4500        16
  39.5000        19
  39.5500        20
  39.6000         9
  39.6500         9
  39.7000        18
  39.7500        18
  39.8000        17
  39.8500        19
  39.9000        10
  39.9500        14
  40.0000        24
  40.0500        12
  40.1000        21
  40.1500        11
  40.2000        20
  40.2500        28
  40.3000        14
  40.3500        24
  40.4000        18
  40.4500        23
  40.5000        10
  40.5500         7
  40.6000        18
  40.6500        14
  40.7000        19
  40.7500        15
  40.8000        13
  40.8500        14
  40.9000        19
  40.9500        13
  41.0000        16
  41.0500        20
  41.1000        20
  41.1500        18
  41.2000        16
  41.2500        21
  41.3000        14
  41.3500        25
  41.4000        17
  41.4500        14
  41.5000        16
  41.5500        18
  41.6000        16
  41.6500        21
  41.7000        17
  41.7500        12
  41.8000        26
  41.8500        18
  41.9000        21
  41.9500        24
  42.0000        17
  42.0500        29
  42.1000        25
  42.1500        15
  42.2000        17
  42.2500        15
  42.3000        22
  42.3500        13
  42.4000        19
  42.4500        17
  42.5000        25
  42.5500        20
  42.6000        16
  42.6500        15
  42.7000        22
  42.7500        31
  42.8000        30
  42.8500        22
  42.9000        33
  42.9500        16
  43.0000        12
  43.0500        21
  43.1000        17
  43.1500        14
  43.2000        18
  43.2500        20
  43.3000         7
  43.3500        14
  43.4000        16
  43.4500        15
  43.5000        18
  43.5500        17
  43.6000        16
  43.6500        17
  43.7000        18
  43.7500        20
  43.8000        16
  43.8500        17
  43.9000        20
  43.9500        21
  44.0000        14
  44.0500        17
  44.1000        23
  44.1500        26
  44.2000        16
  44.2500        13
  44.3000        17
  44.3500        21
  44.4000        11
  44.4500        16
  44.5000        13
  44.5500        21
  44.6000        17
  44.6500        25
  44.7000        13
  44.7500        19
  44.8000        18
  44.8500        25
  44.9000        18
  44.9500        17
  45.0000        19
  45.0500        20
  45.1000        26
  45.1500        10
  45.2000        18
  45.2500        23
  45.3000        30
  45.3500        10
  45.4000        15
  45.4500        15
  45.5000        14
  45.5500        15
  45.6000        23
  45.6500        18
  45.7000        26
  45.7500        12
  45.8000        20
  45.8500        15
  45.9000        21
  45.9500        16
  46.0000        20
  46.0500        12
  46.1000        17
  46.1500        23
  46.2000        18
  46.2500        16
  46.3000        20
  46.3500        13
  46.4000        13
  46.4500        20
  46.5000        21
  46.5500        16
  46.6000        17
  46.6500        19
  46.7000        18
  46.7500        20
  46.8000        20
  46.8500        16
  46.9000        15
  46.9500        11
  47.0000        17
  47.0500        21
  47.1000        22
  47.1500        11
  47.2000        17
  47.2500        15
  47.3000        18
  47.3500        17
  47.4000        14
  47.4500        16
  47.5000        16
  47.5500        16
  47.6000        18
  47.6500        15
  47.7000        17
  47.7500        18
  47.8000        17
  47.8500        10
  47.9000        14
  47.9500        18
  48.0000        22
  48.0500        21
  48.1000         7
  48.1500        13
  48.2000        24
  48.2500        14
  48.3000        24
  48.3500        16
  48.4000        18
  48.4500        29
  48.5000        23
  48.5500        17
  48.6000        19
  48.6500        23
  48.7000        14
  48.7500        19
  48.8000        18
  48.8500        13
  48.9000        19
  48.9500        15
  49.0000        14
  49.0500        18
  49.1000        25
  49.1500        17
  49.2000        24
  49.2500        17
  49.3000        17
  49.3500        13
  49.4000        14
  49.4500        17
  49.5000        16
  49.5500        17
  49.6000        17
  49.6500        17
  49.7000        17
  49.7500         9
  49.8000        14
  49.8500        19
  49.9000        17
  49.9500        16
  50.0000        16
  50.0500        14
  50.1000        12
  50.1500        16
  50.2000        15
  50.2500        23
  50.3000        16
  50.3500        14
  50.4000        21
  50.4500        21
  50.5000        17
  50.5500        17
  50.6000        19
  50.6500        20
  50.7000        17
  50.7500        27
  50.8000        19
  50.8500        23
  50.9000        17
  50.9500        27
  51.0000        19
  51.0500        23
  51.1000        21
  51.1500        23
  51.2000        21
  51.2500        25
  51.3000        21
  51.3500        29
  51.4000        21
  51.4500        17
  51.5000        24
  51.5500        26
  51.6000        17
  51.6500        14
  51.7000        23
  51.7500        33
  51.8000        20
  51.8500        27
  51.9000        30
  51.9500        37
  52.0000        53
  52.0500        60
  52.1000       114
  52.1500       197
  52.2000       338
  52.2500       367
  52.3000       422
  52.3500       273
  52.4000       247
  52.4500       192
  52.5000        94
  52.5500        54
  52.6000        38
  52.6500        27
  52.7000        24
  52.7500        30
  52.8000        21
  52.8500        23
  52.9000        22
  52.9500        24
  53.0000        25
  53.0500        19
  53.1000        25
  53.1500        19
  53.2000        39
  53.2500        20
  53.3000        23
  53.3500        24
  53.4000        27
  53.4500        23
  53.5000        17
  53.5500        20
  53.6000        31
  53.6500        22
  53.7000        34
  53.7500        27
  53.8000        24
  53.8500        30
  53.9000        25
  53.9500        29
  54.0000        24
  54.0500        24
  54.1000        27
  54.1500        17
  54.2000        20
  54.2500        23
  54.3000        26
  54.3500        23
  54.4000        23
  54.4500        27
  54.5000        14
  54.5500        23
  54.6000        21
  54.6500        23
  54.7000        17
  54.7500        26
  54.8000        20
  54.8500        26
  54.9000        29
  54.9500        24
  55.0000        17
  55.0500        21
  55.1000        24
  55.1500        23
  55.2000        24
  55.2500        30
  55.3000        17
  55.3500        20
  55.4000        25
  55.4500        27
  55.5000        24
  55.5500        14
  55.6000        25
  55.6500        18
  55.7000        27
  55.7500        29
  55.8000        23
  55.8500        21
  55.9000        21
  55.9500        15
  56.0000        32
  56.0500        19
  56.1000        23
  56.1500        23
  56.2000        16
  56.2500        17
  56.3000        17
  56.3500        19
  56.4000        20
  56.4500        20
  56.5000        20
  56.5500        21
  56.6000        25
  56.6500        15
  56.7000        23
  56.7500        15
  56.8000        26
  56.8500        29
  56.9000        17
  56.9500        20
  57.0000        23
  57.0500        21
  57.1000        20
  57.1500        25
  57.2000        15
  57.2500        15
  57.3000        21
  57.3500        17
  57.4000        15
  57.4500        14
  57.5000        19
  57.5500        19
  57.6000        16
  57.6500        12
  57.7000        24
  57.7500        23
  57.8000        22
  57.8500        21
  57.9000        28
  57.9500        20
  58.0000        21
  58.0500        15
  58.1000        16
  58.1500        22
  58.2000        23
  58.2500        26
  58.3000        24
  58.3500        20
  58.4000        19
  58.4500        23
  58.5000        28
  58.5500        30
  58.6000        21
  58.6500        21
  58.7000        21
  58.7500        20
  58.8000        19
  58.8500        19
  58.9000        22
  58.9500        22
  59.0000        23
  59.0500        20
  59.1000        15
  59.1500        19
  59.2000        20
  59.2500        21
  59.3000        19
  59.3500        25
  59.4000        17
  59.4500        17
  59.5000        19
  59.5500        19
  59.6000        19
  59.6500        14
  59.7000        14
  59.7500        27
  59.8000        20
  59.8500        24
  59.9000        25
  59.9500        23
  60.0000        22
  60.0500        24
  60.1000        21
  60.1500        17
  60.2000        15
  60.2500        22
  60.3000        26
  60.3500        17
  60.4000        29
  60.4500        28
  60.5000        14
  60.5500        15
  60.6000        18
  60.6500        18
  60.7000        26
  60.7500        31
  60.8000        25
  60.8500        24
  60.9000        19
  60.9500        24
  61.0000        20
  61.0500        17
  61.1000        24
  61.1500        19
  61.2000        26
  61.2500        18
  61.3000        32
  61.3500        25
  61.4000        21
  61.4500        21
  61.5000        24
  61.5500        30
  61.6000        33
  61.6500        33
  61.7000        30
  61.7500        33
  61.8000        30
  61.8500        38
  61.9000        43
  61.9500        68
  62.0000       100
  62.0500       229
  62.1000       353
  62.1500       390
  62.2000       436
  62.2500       405
  62.3000       277
  62.3500       256
  62.4000       176
  62.4500       116
  62.5000        79
  62.5500        71
  62.6000        37
  62.6500        41
  62.7000        27
  62.7500        41
  62.8000        26
  62.8500        32
  62.9000        24
  62.9500        38
  63.0000        29
  63.0500        23
  63.1000        16
  63.1500        20
  63.2000        16
  63.2500        23
  63.3000        21
  63.3500        24
  63.4000        27
  63.4500        17
  63.5000        17
  63.5500        19
  63.6000        20
  63.6500        27
  63.7000        19
  63.7500        23
  63.8000        20
  63.8500        20
  63.9000        21
  63.9500        16
  64.0000        26
  64.0500        24
  64.1000        18
  64.1500        17
  64.2000        18
  64.2500        19
  64.3000        18
  64.3500        29
  64.4000        19
  64.4500        22
  64.5000        21
  64.5500        21
  64.6000        26
  64.6500        17
  64.7000        24
  64.7500        19
  64.8000        22
  64.8500        19
  64.9000        21
  64.9500        32
  65.0000        19
  65.0500        29
  65.1000        55
  65.1500       110
  65.2000       169
  65.2500       222
  65.3000       164
  65.3500       169
  65.4000       124
  65.4500       111
  65.5000        77
  65.5500        53
  65.6000        39
  65.6500        24
  65.7000        24
  65.7500        22
  65.8000        35
  65.8500        22
  65.9000        13
  65.9500        28
  66.0000        19
  66.0500        18
  66.1000        15
  66.1500        27
  66.2000        19
  66.2500        13
  66.3000        18
  66.3500        15
  66.4000        16
  66.4500        22
  66.5000        18
  66.5500        21
  66.6000        17
  66.6500        20
  66.7000        18
  66.7500        17
  66.8000        19
  66.8500        23
  66.9000        15
  66.9500        20
  67.0000        23
  67.0500        13
  67.1000        11
  67.1500        20
  67.2000        22
  67.2500        15
  67.3000        13
  67.3500        17
  67.4000        10
  67.4500        17
  67.5000        14
  67.5500        17
  67.6000        18
  67.6500        20
  67.7000        23
  67.7500        18
  67.8000        22
  67.8500        13
  67.9000        18
  67.9500        23
  68.0000        15
  68.0500        18
  68.1000        15
  68.1500        14
  68.2000        20
  68.2500        14
  68.3000        14
  68.3500        19
  68.4000        16
  68.4500        19
  68.5000        10
  68.5500        11
  68.6000        17
  68.6500        23
  68.7000        15
  68.7500        12
  68.8000        18
  68.8500        19
  68.9000         9
  68.9500        15
  69.0000        20
  69.0500        19
  69.1000        13
  69.1500        14
  69.2000        17
  69.2500        27
  69.3000        16
  69.3500        21
  69.4000        17
  69.4500        21
  69.5000        17
  69.5500        14
  69.6000        15
  69.6500        10
  69.7000        14
  69.7500        27
  69.8000        16
  69.8500        15
  69.9000        20
  69.9500        17
  70.0000        17
  70.0500        12
  70.1000        21
  70.1500        13
  70.2000        17
  70.2500        16
  70.3000        27
  70.3500        17
  70.4000        21
  70.4500        15
  70.5000        12
  70.5500        21
  70.6000        14
  70.6500        12
  70.7000        10
  70.7500        20
  70.8000        14
  70.8500        19
  70.9000        19
  70.9500        19
  71.0000        13
  71.0500        17
  71.1000        20
  71.1500        19
  71.2000        19
  71.2500        16
  71.3000         9
  71.3500        19
  71.4000        13
  71.4500        10
  71.5000        15
  71.5500        15
  71.6000        18
  71.6500        15
  71.7000         9
  71.7500        21
  71.8000        16
  71.8500        18
  71.9000        16
  71.9500        14
  72.0000        20
  72.0500        19
  72.1000        12
  72.1500        12
  72.2000        22
  72.2500        21
  72.3000        20
  72.3500        18
  72.4000        16
  72.4500        16
  72.5000        12
  72.5500        18
  72.6000        10
  72.6500        13
  72.7000        12
  72.7500        19
  72.8000        17
  72.8500        14
  72.9000        13
  72.9500        15
  73.0000        16
  73.0500         9
  73.1000        10
  73.1500        11
  73.2000        17
  73.2500        15
  73.3000        13
  73.3500         9
  73.4000        13
  73.4500        11
  73.5000        15
  73.5500        19
  73.6000        13
  73.6500        17
  73.7000        15
  73.7500        12
  73.8000        19
  73.8500        24
  73.9000        13
  73.9500        23
  74.0000        23
  74.0500        16
  74.1000        17
  74.1500        16
  74.2000        18
  74.2500        15
  74.3000         6
  74.3500        22
  74.4000        18
  74.4500        17
  74.5000        19
  74.5500        19
  74.6000         7
  74.6500        19
  74.7000        12
  74.7500        19
  74.8000        12
  74.8500        17
  74.9000        17
  74.9500        17
  75.0000        15
  75.0500        18
  75.1000        17
  75.1500        11
  75.2000        15
  75.2500        19
  75.3000        11
  75.3500        21
  75.4000        23
  75.4500        11
  75.5000        14
  75.5500         9
  75.6000        22
  75.6500        14
  75.7000        12
  75.7500        10
  75.8000        14
  75.8500        13
  75.9000        18
  75.9500        17
  76.0000        16
  76.0500        18
  76.1000        14
  76.1500        11
  76.2000        13
  76.2500        12
  76.3000        18
  76.3500        19
  76.4000        14
  76.4500        13
  76.5000        23
  76.5500        18
  76.6000        21
  76.6500        15
  76.7000        25
  76.7500        20
  76.8000        26
  76.8500        24
  76.9000        51
  76.9500        54
  77.0000        59
  77.0500        53
  77.1000        46
  77.1500        40
  77.2000        43
  77.2500        40
  77.3000        35
  77.3500        31
  77.4000        24
  77.4500        22
  77.5000         8
  77.5500        17
  77.6000        13
  77.6500         6
  77.7000        17
  77.7500        18
  77.8000        22
  77.8500        11
  77.9000        15
  77.9500        10
  78.0000        21
  78.0500        14
  78.1000        21
  78.1500        28
  78.2000        17
  78.2500        21
  78.3000        28
  78.3500        11
  78.4000         8
  78.4500        19
  78.5000        17
  78.5500        14
  78.6000        10
  78.6500        13
  78.7000        11
  78.7500        14
  78.8000        14
  78.8500        23
  78.9000        11
  78.9500        12
  79.0000        12
  79.0500        19
  79.1000        18
  79.1500        15
  79.2000        11
  79.2500        13
  79.3000        16
  79.3500        16
  79.4000        18
  79.4500        25
  79.5000        18
  79.5500        18
  79.6000        19
  79.6500        20
  79.7000        13
  79.7500        10
  79.8000        18
  79.8500        11
  79.9000        16
  79.9500        16
  80.0000        14
  80.0500        13
  80.1000        21
  80.1500        15
  80.2000        11
  80.2500        13
  80.3000        17
  80.3500        19
  80.4000        19
  80.4500        16
  80.5000        17
  80.5500        27
  80.6000        21
  80.6500        15
  80.7000        12
  80.7500        13
  80.8000        11
  80.8500        12
  80.9000        15
  80.9500        15
  81.0000        18
  81.0500        10
  81.1000        13
  81.1500        15
  81.2000        13
  81.2500        21
  81.3000        21
  81.3500        14
  81.4000        20
  81.4500        16
  81.5000        18
  81.5500        23
  81.6000        12
  81.6500        16
  81.7000        14
  81.7500        10
  81.8000        16
  81.8500        19
  81.9000        12
  81.9500        21
  82.0000         7
  82.0500        16
  82.1000        19
  82.1500        19
  82.2000         9
  82.2500        17
  82.3000        18
  82.3500        13
  82.4000        21
  82.4500        11
  82.5000        16
  82.5500        17
  82.6000        15
  82.6500        15
  82.7000        18
  82.7500        14
  82.8000        15
  82.8500        23
  82.9000        16
  82.9500        16
  83.0000        21
  83.0500        23
  83.1000         9
  83.1500        19
  83.2000        10
  83.2500        13
  83.3000        17
  83.3500        25
  83.4000        27
  83.4500        17
  83.5000        17
  83.5500        21
  83.6000        30
  83.6500        24
  83.7000        17
  83.7500        14
  83.8000        10
  83.8500        20
  83.9000        12
  83.9500        14
  84.0000        17
  84.0500        13
  84.1000        13
  84.1500        26
  84.2000        10
  84.2500        17
  84.3000        17
  84.3500        25
  84.4000        17
  84.4500        15
  84.5000        23
  84.5500        18
  84.6000        16
  84.6500        23
  84.7000        21
  84.7500        16
  84.8000        15
  84.8500        25
  84.9000        23
  84.9500        18
  85.0000        19
  85.0500        22
  85.1000        25
  85.1500        21
  85.2000        29
  85.2500        31
  85.3000        57
  85.3500        89
  85.4000       126
  85.4500       135
  85.5000       127
  85.5500        89
  85.6000        89
  85.6500        91
  85.7000        92
  85.7500        75
  85.8000        58
  85.8500        29
  85.9000        37
  85.9500        25
  86.0000        22
  86.0500        28
  86.1000        31
  86.1500        23
  86.2000        26
  86.2500        24
  86.3000        15
  86.3500        25
  86.4000        12
  86.4500        18
  86.5000        20
  86.5500        16
  86.6000        19
  86.6500        26
  86.7000        26
  86.7500        16
  86.8000        19
  86.8500        26
  86.9000        21
  86.9500        13
  87.0000        18
  87.0500        22
  87.1000        17
  87.1500        14
  87.2000        14
  87.2500        22
  87.3000        19
  87.3500        20
  87.4000        21
  87.4500        25
  87.5000        19
  87.5500        22
  87.6000        17
  87.6500        23
  87.7000        27
  87.7500        16
  87.8000        25
  87.8500        30
  87.9000        22
  87.9500        27
  88.0000        37
  88.0500        54
  88.1000        53
  88.1500        83
  88.2000       117
  88.2500        88
  88.3000        88
  88.3500        66
  88.4000        56
  88.4500        51
  88.5000        53
  88.5500        48
  88.6000        53
  88.6500        37
  88.7000        34
  88.7500        15
  88.8000        25
  88.8500        14
  88.9000        25
  88.9500        12
  89.0000        21
  89.0500        18
  89.1000        20
  89.1500        21
  89.2000        20
  89.2500        19
  89.3000        26
  89.3500        15
  89.4000        28
  89.4500        13
  89.5000        14
  89.5500        15
  89.6000        13
  89.6500        14
  89.7000        23
  89.7500        19
  89.8000        17
  89.8500        23
  89.9000        15
  89.9500        16
  90.0000        13
  90.0500        13
  90.1000        17
  90.1500        19
  90.2000        20
  90.2500        14
  90.3000        20
  90.3500        22
  90.4000        15
  90.4500        15
  90.5000        28
  90.5500        16
  90.6000        13
  90.6500        24
  90.7000         8
  90.7500        13
  90.8000        22
  90.8500        10
  90.9000        14
  90.9500        16
  91.0000        15
  91.0500        13
  91.1000        17
  91.1500        15
  91.2000        13
  91.2500        17
  91.3000        16
  91.3500        22
  91.4000        21
  91.4500        21
  91.5000        18
  91.5500        13
  91.6000        21
  91.6500        12
  91.7000        27
  91.7500        14
  91.8000        14
  91.8500        11
  91.9000        11
  91.9500        11
  92.0000        14
  92.0500        23
  92.1000        22
  92.1500        13
  92.2000        22
  92.2500        13
  92.3000        17
  92.3500        11
  92.4000        19
  92.4500        10
  92.5000        15
  92.5500        16
  92.6000        24
  92.6500        19
  92.7000        19
  92.7500        18
  92.8000        24
  92.8500        12
  92.9000        12
  92.9500        16
  93.0000        22
  93.0500        18
  93.1000        11
  93.1500        18
  93.2000        20
  93.2500        13
  93.3000        18
  93.3500        15
  93.4000        14
  93.4500        14
  93.5000        16
  93.5500        11
  93.6000        16
  93.6500        15
  93.7000        12
  93.7500        19
  93.8000        16
  93.8500        13
  93.9000        10
  93.9500        15
  94.0000        18
  94.0500        23
  94.1000        18
  94.1500        18
  94.2000        14
  94.2500        16
  94.3000        16
  94.3500        26
  94.4000         9
  94.4500        19
  94.5000        24
  94.5500        23
  94.6000        15
  94.6500        15
  94.7000        12
  94.7500        12
  94.8000        11
  94.8500        17
  94.9000        20
  94.9500        25
  95.0000        13
  95.0500        13
  95.1000        23
  95.1500         9
  95.2000        17
  95.2500        14
  95.3000        18
  95.3500        18
  95.4000         9
  95.4500        11
  95.5000        17
  95.5500        14
  95.6000         9
  95.6500        17
  95.7000        11
  95.7500        14
  95.8000        14
  95.8500        27
  95.9000        18
  95.9500        21
  96.0000        11
  96.0500        17
  96.1000        20
  96.1500        20
  96.2000        19
  96.2500        14
  96.3000        20
  96.3500        17
  96.4000        18
  96.4500         9
  96.5000        15
  96.5500        15
  96.6000        21
  96.6500         9
  96.7000        16
  96.7500        26
  96.8000        16
  96.8500         8
  96.9000        14
  96.9500        22
  97.0000        19
  97.0500        20
  97.1000        26
  97.1500        17
  97.2000        27
  97.2500        16
  97.3000        24
  97.3500        19
  97.4000        25
  97.4500        17
  97.5000        17
  97.5500        14
  97.6000        18
  97.6500        14
  97.7000        22
  97.7500        14
  97.8000        15
  97.8500        20
  97.9000        15
  97.9500        23
  98.0000        17
  98.0500        15
  98.1000        16
  98.1500        17
  98.2000        18
  98.2500        22
  98.3000        14
  98.3500        16
  98.4000        24
  98.4500        16
  98.5000        25
  98.5500        15
  98.6000        18
  98.6500        24
  98.7000        23
  98.7500        33
  98.8000        21
  98.8500        22
  98.9000        19
  98.9500        22
  99.0000        22
  99.0500        28
  99.1000        21
  99.1500        38
  99.2000        35
  99.2500        54
  99.3000        75
  99.3500        84
  99.4000        92
  99.4500        68
  99.5000        48
  99.5500        49
  99.6000        52
  99.6500        55
  99.7000        59
  99.7500        49
  99.8000        45
  99.8500        36
  99.9000        21
  99.9500        18
 100.0000        17
 100.0500        13
 100.1000        21
 100.1500        15
 100.2000        13
 100.2500        18
 100.3000        21
 100.3500        21
 100.4000        13
 100.4500        23
 100.5000        21
 100.5500        21
 100.6000        15
 100.6500        16
 100.7000        20
 100.7500        19
 100.8000        13
 100.8500        18
 100.9000        26
 100.9500        10
 101.0000        15
 101.0500        17
 101.1000        17
 101.1500        18
 101.2000        26
 101.2500        12
 101.3000        16
 101.3500        17
 101.4000        12
 101.4500        21
 101.5000        16
 101.5500        15
 101.6000        12
 101.6500        12
 101.7000        12
 101.7500        19
 101.8000         8
 101.8500        16
 101.9000        16
 101.9500        23
 102.0000        16
 102.0500        22
 102.1000        33
 102.1500        16
 102.2000        14
 102.2500        21
 102.3000        14
 102.3500        17
 102.4000        13
 102.4500        14
 102.5000        13
 102.5500        20
 102.6000        24
 102.6500        14
 102.7000        26
 102.7500        23
 102.8000        17
 102.8500        13
 102.9000        15
 102.9500        20
 103.0000        10
 103.0500        18
 103.1000        19
 103.1500        17
 103.2000        16
 103.2500        21
 103.3000        16
 103.3500        20
 103.4000        22
 103.4500        13
 103.5000        13
 103.5500        12
 103.6000        22
 103.6500        14
 103.7000        17
 103.7500        10
 103.8000        13
 103.8500        12
 103.9000        13
 103.9500        22
 104.0000         9
 104.0500        17
 104.1000        16
 104.1500        22
 104.2000        21
 104.2500        16
 104.3000         8
 104.3500        10
 104.4000        15
 104.4500        25
 104.5000        12
 104.5500        18
 104.6000        14
 104.6500        19
 104.7000        19
 104.7500        18
 104.8000        21
 104.8500        16
 104.9000        13
 104.9500        14
 105.0000        19
 105.0500         8
 105.1000        15
 105.1500         8
 105.2000        18
 105.2500        14
 105.3000        17
 105.3500        17
 105.4000        19
 105.4500        18
 105.5000        16
 105.5500        16
 105.6000        18
 105.6500        13
 105.7000        18
 105.7500        13
 105.8000        22
 105.8500        23
 105.9000        23
 105.9500        13
 106.0000        30
 106.0500        21
 106.1000        13
 106.1500        12
 106.2000        16
 106.2500        25
 106.3000        11
 106.3500        11
 106.4000        17
 106.4500        24
 106.5000        24
 106.5500        20
 106.6000        16
 106.6500        20
 106.7000        17
 106.7500        21
 106.8000        15
 106.8500        13
 106.9000        15
 106.9500        21
 107.0000        21
 107.0500        13
 107.1000        21
 107.1500        15
 107.2000        19
 107.2500        21
 107.3000        19
 107.3500        15
 107.4000        28
 107.4500        18
 107.5000        18
 107.5500        23
 107.6000        22
 107.6500        23
 107.7000        40
 107.7500        39
 107.8000        58
 107.8500        79
 107.9000        75
 107.9500        81
 108.0000        72
 108.0500        58
 108.1000        35
 108.1500        59
 108.2000        43
 108.2500        54
 108.3000        54
 108.3500        55
 108.4000        35
 108.4500        34
 108.5000        32
 108.5500        23
 108.6000        28
 108.6500        23
 108.7000        22
 108.7500        20
 108.8000        23
 108.8500        10
 108.9000        12
 108.9500        18
 109.0000        20
 109.0500        14
 109.1000        15
 109.1500        22
 109.2000        17
 109.2500        14
 109.3000        20
 109.3500        25
 109.4000        17
 109.4500        16
 109.5000        12
 109.5500        24
 109.6000        23
 109.6500        19
 109.7000        24
 109.7500        19
 109.8000        17
 109.8500        20
 109.9000        24
 109.9500        18
 110.0000        22
