  10.0000        15
  10.0500        14
  10.1000        32
  10.1500        13
  10.2000        21
  10.2500        22
  10.3000        29
  10.3500        20
  10.4000        19
  10.4500        19
  10.5000        18
  10.5500        19
  10.6000        19
  10.6500        20
  10.7000        14
  10.7500        21
  10.8000        17
  10.8500        24
  10.9000        11
  10.9500        18
  11.0000        18
  11.0500        23
  11.1000        13
  11.1500        24
  11.2000        24
  11.2500        27
  11.3000        23
  11.3500        22
  11.4000        20
  11.4500        26
  11.5000        15
  11.5500        17
  11.6000        15
  11.6500        16
  11.7000        17
  11.7500        23
  11.8000        13
  11.8500        22
  11.9000        13
  11.9500        21
  12.0000        14
  12.0500        12
  12.1000        23
  12.1500        15
  12.2000        14
  12.2500        18
  12.3000        16
  12.3500        25
  12.4000        20
  12.4500         8
  12.5000        14
  12.5500        12
  12.6000        19
  12.6500        19
  12.7000        14
  12.7500        17
  12.8000        27
  12.8500        16
  12.9000        19
  12.9500        21
  13.0000        20
  13.0500        12
  13.1000        16
  13.1500        12
  13.2000        17
  13.2500        22
  13.3000        11
  13.3500        14
  13.4000        19
  13.4500        13
  13.5000        13
  13.5500        14
  13.6000        15
  13.6500        15
  13.7000        17
  13.7500        21
  13.8000        21
  13.8500        18
  13.9000        15
  13.9500        15
  14.0000        13
  14.0500        19
  14.1000        17
  14.1500        11
  14.2000        15
  14.2500        16
  14.3000        12
  14.3500        20
  14.4000        14
  14.4500        12
  14.5000        10
  14.5500        16
  14.6000        14
  14.6500        16
  14.7000        14
  14.7500        15
  14.8000        17
  14.8500        13
  14.9000        17
  14.9500        19
  15.0000         9
  15.0500        23
  15.1000        14
  15.1500        19
  15.2000         9
  15.2500        12
  15.3000        16
  15.3500        14
  15.4000        14
  15.4500        20
  15.5000         8
  15.5500         7
  15.6000        11
  15.6500        15
  15.7000         9
  15.7500        18
  15.8000        20
  15.8500        20
  15.9000        13
  15.9500        12
  16.0000        16
  16.0500        12
  16.1000        12
  16.1500        14
  16.2000        17
  16.2500        18
  16.3000        16
  16.3500        13
  16.4000        16
  16.4500        12
  16.5000        23
  16.5500        14
  16.6000        20
  16.6500        11
  16.7000        12
  16.7500        13
  16.8000        19
  16.8500        17
  16.9000        13
  16.9500        15
  17.0000        16
  17.0500        14
  17.1000        14
  17.1500        15
  17.2000        16
  17.2500        12
  17.3000        11
  17.3500        11
  17.4000        18
  17.4500        10
  17.5000        13
  17.5500        15
  17.6000        17
  17.6500         9
  17.7000        17
  17.7500         4
  17.8000         9
  17.8500        14
  17.9000        12
  17.9500        10
  18.0000         7
  18.0500        16
  18.1000        24
  18.1500        12
  18.2000         7
  18.2500        16
  18.3000        15
  18.3500        15
  18.4000        15
  18.4500        14
  18.5000        13
  18.5500        15
  18.6000        10
  18.6500         8
  18.7000        17
  18.7500         3
  18.8000        17
  18.8500        12
  18.9000         8
  18.9500        20
  19.0000        19
  19.0500        13
  19.1000         8
  19.1500        14
  19.2000        11
  19.2500        13
  19.3000        13
  19.3500        18
  19.4000        11
  19.4500        15
  19.5000        14
  19.5500        19
  19.6000        11
  19.6500         9
  19.7000        17
  19.7500        15
  19.8000        16
  19.8500         8
  19.9000        14
  19.9500         8
  20.0000        24
  20.0500         7
  20.1000        10
  20.1500        16
  20.2000        13
  20.2500        17
  20.3000        12
  20.3500         9
  20.4000        18
  20.4500        13
  20.5000        17
  20.5500        21
  20.6000         9
  20.6500        15
  20.7000        17
  20.7500         8
  20.8000        16
  20.8500        13
  20.9000        11
  20.9500        11
  21.0000        18
  21.0500         5
  21.1000        11
  21.1500        14
  21.2000        16
  21.2500        10
  21.3000         7
  21.3500        12
  21.4000        22
  21.4500        13
  21.5000        16
  21.5500        10
  21.6000        20
  21.6500        15
  21.7000        12
  21.7500         9
  21.8000        11
  21.8500        25
  21.9000        12
  21.9500        17
  22.0000        13
  22.0500        22
  22.1000        18
  22.1500        20
  22.2000        14
  22.2500        12
  22.3000        12
  22.3500        13
  22.4000        13
  22.4500        13
  22.5000        16
  22.5500        16
  22.6000         6
  22.6500        11
  22.7000        21
  22.7500        25
  22.8000        20
  22.8500        21
  22.9000        16
  22.9500        15
  23.0000        11
  23.0500        12
  23.1000        16
  23.1500        17
  23.2000        11
  23.2500        16
  23.3000        16
  23.3500        10
  23.4000        15
  23.4500        10
  23.5000        14
  23.5500        17
  23.6000        10
  23.6500        11
  23.7000        19
  23.7500        14
  23.8000        19
  23.8500        13
  23.9000        16
  23.9500        18
  24.0000        12
  24.0500        18
  24.1000        12
  24.1500        10
  24.2000        18
  24.2500        12
  24.3000        21
  24.3500         9
  24.4000        15
  24.4500        14
  24.5000        17
  24.5500        13
  24.6000        18
  24.6500        17
  24.7000        20
  24.7500        20
  24.8000        11
  24.8500        23
  24.9000        11
  24.9500        11
  25.0000        18
  25.0500        16
  25.1000        12
  25.1500        12
  25.2000        14
  25.2500        18
  25.3000        11
  25.3500         8
  25.4000        18
  25.4500        11
  25.5000        12
  25.5500         9
  25.6000        12
  25.6500        18
  25.7000        18
  25.7500        16
  25.8000        17
  25.8500        14
  25.9000        15
  25.9500        15
  26.0000        14
  26.0500        16
  26.1000        12
  26.1500        21
  26.2000        11
  26.2500        14
  26.3000        17
  26.3500        15
  26.4000        17
  26.4500        15
  26.5000        27
  26.5500        31
  26.6000        20
  26.6500        15
  26.7000        14
  26.7500        21
  26.8000        14
  26.8500        15
  26.9000        13
  26.9500        16
  27.0000        22
  27.0500        19
  27.1000        14
  27.1500        14
  27.2000        16
  27.2500        16
  27.3000        24
  27.3500        13
  27.4000        14
  27.4500        18
  27.5000        23
  27.5500        24
  27.6000        16
  27.6500        14
  27.7000        16
  27.7500        19
  27.8000        14
  27.8500        16
  27.9000        21
  27.9500        20
  28.0000        14
  28.0500        14
  28.1000        19
  28.1500        16
  28.2000        21
  28.2500        16
  28.3000        13
  28.3500        13
  28.4000        19
  28.4500        23
  28.5000        20
  28.5500        16
  28.6000        18
  28.6500        23
  28.7000        15
  28.7500        22
  28.8000        15
  28.8500        20
  28.9000        18
  28.9500        24
  29.0000        22
  29.0500        20
  29.1000        14
  29.1500        21
  29.2000        18
  29.2500        21
  29.3000        23
  29.3500        17
  29.4000        22
  29.4500        18
  29.5000        23
  29.5500        22
  29.6000        27
  29.6500        19
  29.7000        22
  29.7500        17
  29.8000        22
  29.8500        23
  29.9000        14
  29.9500        17
  30.0000        20
  30.0500        25
  30.1000        30
  30.1500        31
  30.2000        37
  30.2500        36
  30.3000        34
  30.3500        37
  30.4000        40
  30.4500        57
  30.5000        81
  30.5500       113
  30.6000       142
  30.6500       111
  30.7000        79
  30.7500        59
  30.8000        53
  30.8500        60
  30.9000        58
  30.9500        73
  31.0000       122
  31.0500       227
  31.1000       404
  31.1500       772
  31.2000      1247
  31.2500      1487
  31.3000      1397
  31.3500       973
  31.4000       593
  31.4500       243
  31.5000       111
  31.5500        63
  31.6000        47
  31.6500        43
  31.7000        38
  31.7500        49
  31.8000        64
  31.8500       116
  31.9000       146
  31.9500       224
  32.0000       253
  32.0500       253
  32.1000       133
  32.1500        71
  32.2000        44
  32.2500        24
  32.3000        22
  32.3500        27
  32.4000        29
  32.4500        21
  32.5000        37
  32.5500        23
  32.6000        20
  32.6500        23
  32.7000        17
  32.7500        22
  32.8000        14
  32.8500        15
  32.9000        24
  32.9500        20
  33.0000        17
  33.0500        19
  33.1000        19
  33.1500        11
  33.2000        23
  33.2500        22
  33.3000        18
  33.3500        19
  33.4000        16
  33.4500        17
  33.5000        11
  33.5500        16
  33.6000        16
  33.6500        19
  33.7000        14
  33.7500        19
  33.8000        20
  33.8500        15
  33.9000        19
  33.9500        22
  34.0000        18
  34.0500        23
  34.1000        17
  34.1500        22
  34.2000        26
  34.2500        19
  34.3000        11
  34.3500        18
  34.4000         8
  34.4500        13
  34.5000        13
  34.5500        19
  34.6000        13
  34.6500        22
  34.7000        18
  34.7500        15
  34.8000        15
  34.8500        18
  34.9000        23
  34.9500        17
  35.0000        21
  35.0500        19
  35.1000        16
  35.1500        15
  35.2000        23
  35.2500        18
  35.3000        26
  35.3500        23
  35.4000        21
  35.4500        21
  35.5000        30
  35.5500        30
  35.6000        26
  35.6500        25
  35.7000        27
  35.7500        32
  35.8000        26
  35.8500        26
  35.9000        38
  35.9500        43
  36.0000        88
  36.0500       129
  36.1000       232
  36.1500       365
  36.2000       569
  36.2500       639
  36.3000       611
  36.3500       442
  36.4000       273
  36.4500       130
  36.5000        85
  36.5500        51
  36.6000        33
  36.6500        33
  36.7000        30
  36.7500        20
  36.8000        15
  36.8500        18
  36.9000        20
  36.9500        16
  37.0000        21
  37.0500        20
  37.1000        26
  37.1500        15
  37.2000        19
  37.2500        17
  37.3000        14
  37.3500        16
  37.4000        17
  37.4500        17
  37.5000        16
  37.5500        13
  37.6000        12
  37.6500        14
  37.7000        10
  37.7500        11
  37.8000        13
  37.8500        20
  37.9000        18
  37.9500        17
  38.0000        21
  38.0500        25
  38.1000        13
  38.1500        14
  38.2000         9
  38.2500        15
  38.3000        20
  38.3500        20
  38.4000         7
  38.4500         9
  38.5000        15
  38.5500        16
  38.6000         4
  38.6500        11
  38.7000        15
  38.7500        14
  38.8000        12
  38.8500        13
  38.9000        16
  38.9500         8
  39.0000        23
  39.0500        23
  39.1000        14
  39.1500        21
  39.2000        13
  39.2500        15
  39.3000        17
  39.3500        14
  39.4000        14
  39.4500        21
  39.5000        12
  39.5500        12
  39.6000        10
  39.6500        19
  39.7000        10
  39.7500         7
  39.8000        14
  39.8500        15
  39.9000        18
  39.9500        16
  40.0000         9
  40.0500        11
  40.1000        18
  40.1500        10
  40.2000        14
  40.2500        16
  40.3000        13
  40.3500        23
  40.4000        12
  40.4500        15
  40.5000        12
  40.5500        15
  40.6000        13
  40.6500        15
  40.7000        20
  40.7500        13
  40.8000        16
  40.8500        10
  40.9000        14
  40.9500        10
  41.0000        14
  41.0500        13
  41.1000        16
  41.1500        14
  41.2000        16
  41.2500        16
  41.3000        17
  41.3500        12
  41.4000        13
  41.4500        21
  41.5000        17
  41.5500        18
  41.6000        12
  41.6500        10
  41.7000        11
  41.7500        10
  41.8000         8
  41.8500         8
  41.9000        19
  41.9500        11
  42.0000         6
  42.0500        12
  42.1000         9
  42.1500        25
  42.2000        10
  42.2500         9
  42.3000        16
  42.3500         9
  42.4000        11
  42.4500        17
  42.5000        14
  42.5500        13
  42.6000        25
  42.6500        15
  42.7000         8
  42.7500        15
  42.8000        12
  42.8500        16
  42.9000        15
  42.9500        12
  43.0000        15
  43.0500        13
  43.1000        18
  43.1500        13
  43.2000        15
  43.2500        11
  43.3000        14
  43.3500        15
  43.4000        18
  43.4500        12
  43.5000        11
  43.5500        13
  43.6000        16
  43.6500        18
  43.7000        26
  43.7500        51
  43.8000        64
  43.8500        64
  43.9000        49
  43.9500        47
  44.0000        42
  44.0500        27
  44.1000        18
  44.1500        13
  44.2000        19
  44.2500        14
  44.3000        15
  44.3500        20
  44.4000        14
  44.4500        22
  44.5000        24
  44.5500         8
  44.6000        16
  44.6500        21
  44.7000        37
  44.7500        73
  44.8000       132
  44.8500       181
  44.9000       189
  44.9500       175
  45.0000       128
  45.0500        81
  45.1000        45
  45.1500        22
  45.2000        27
  45.2500        14
  45.3000        11
  45.3500        16
  45.4000        12
  45.4500         9
  45.5000        19
  45.5500        15
  45.6000        11
  45.6500         8
  45.7000        10
  45.7500        14
  45.8000        20
  45.8500        18
  45.9000        22
  45.9500        19
  46.0000        11
  46.0500         8
  46.1000        16
  46.1500        13
  46.2000        14
  46.2500        19
  46.3000        14
  46.3500        16
  46.4000        13
  46.4500        24
  46.5000        15
  46.5500        11
  46.6000        13
  46.6500        11
  46.7000        16
  46.7500        14
  46.8000        13
  46.8500        15
  46.9000        14
  46.9500        15
  47.0000         8
  47.0500        15
  47.1000        20
  47.1500        15
  47.2000        12
  47.2500        11
  47.3000        18
  47.3500        16
  47.4000         9
  47.4500        16
  47.5000        14
  47.5500        14
  47.6000         8
  47.6500        10
  47.7000        14
  47.7500        17
  47.8000        11
  47.8500        12
  47.9000        14
  47.9500        12
  48.0000        11
  48.0500        16
  48.1000        13
  48.1500        15
  48.2000        10
  48.2500        14
  48.3000        19
  48.3500        13
  48.4000        15
  48.4500        12
  48.5000        15
  48.5500        17
  48.6000         8
  48.6500        10
  48.7000        15
  48.7500        13
  48.8000        12
  48.8500        10
  48.9000         8
  48.9500        16
  49.0000         7
  49.0500        16
  49.1000        15
  49.1500         7
  49.2000         7
  49.2500         8
  49.3000        15
  49.3500        17
  49.4000        11
  49.4500         9
  49.5000         8
  49.5500        20
  49.6000         9
  49.6500        13
  49.7000         8
  49.7500        17
  49.8000        14
  49.8500        16
  49.9000        12
  49.9500         7
  50.0000         9
  50.0500        13
  50.1000        13
  50.1500        19
  50.2000        15
  50.2500        13
  50.3000        13
  50.3500        19
  50.4000        15
  50.4500        15
  50.5000        10
  50.5500        15
  50.6000        11
  50.6500        20
  50.7000        11
  50.7500        15
  50.8000        21
  50.8500        11
  50.9000        13
  50.9500        19
  51.0000        26
  51.0500        20
  51.1000        17
  51.1500        17
  51.2000        14
  51.2500        15
  51.3000        16
  51.3500        21
  51.4000        16
  51.4500        24
  51.5000        22
  51.5500        18
  51.6000        15
  51.6500        23
  51.7000        20
  51.7500        25
  51.8000        13
  51.8500        23
  51.9000        28
  51.9500        25
  52.0000        42
  52.0500        73
  52.1000       116
  52.1500       246
  52.2000       335
  52.2500       337
  52.3000       296
  52.3500       257
  52.4000       161
  52.4500       105
  52.5000        61
  52.5500        38
  52.6000        20
  52.6500        25
  52.7000        29
  52.7500        19
  52.8000        16
  52.8500        14
  52.9000        23
  52.9500        18
  53.0000        20
  53.0500        14
  53.1000        19
  53.1500        17
  53.2000        16
  53.2500        16
  53.3000        15
  53.3500        13
  53.4000        23
  53.4500        17
  53.5000        20
  53.5500        28
  53.6000        17
  53.6500        16
  53.7000        14
  53.7500        13
  53.8000        17
  53.8500        15
  53.9000        18
  53.9500        17
  54.0000        16
  54.0500        12
  54.1000        15
  54.1500        15
  54.2000        17
  54.2500        15
  54.3000        23
  54.3500        22
  54.4000        16
  54.4500         9
  54.5000        17
  54.5500        14
  54.6000        16
  54.6500        25
  54.7000        12
  54.7500        14
  54.8000        14
  54.8500        10
  54.9000        11
  54.9500        17
  55.0000        20
  55.0500        22
  55.1000        12
  55.1500        15
  55.2000        33
  55.2500        40
  55.3000        49
  55.3500        33
  55.4000        33
  55.4500        34
  55.5000        32
  55.5500        20
  55.6000        34
  55.6500        15
  55.7000        14
  55.7500        10
  55.8000        23
  55.8500        20
  55.9000        13
  55.9500        12
  56.0000        13
  56.0500        13
  56.1000        14
  56.1500        14
  56.2000        17
  56.2500        14
  56.3000        16
  56.3500        20
  56.4000        18
  56.4500        17
  56.5000        11
  56.5500        14
  56.6000        10
  56.6500        10
  56.7000        22
  56.7500        23
  56.8000        18
  56.8500        11
  56.9000        14
  56.9500        18
  57.0000        13
  57.0500        24
  57.1000        12
  57.1500        10
  57.2000        17
  57.2500        21
  57.3000        16
  57.3500        16
  57.4000        16
  57.4500        20
  57.5000        16
  57.5500        15
  57.6000        10
  57.6500        14
  57.7000        17
  57.7500        14
  57.8000        21
  57.8500        11
  57.9000         9
  57.9500        15
  58.0000        20
  58.0500        16
  58.1000        15
  58.1500        23
  58.2000        13
  58.2500        14
  58.3000        11
  58.3500        14
  58.4000        21
  58.4500        11
  58.5000        17
  58.5500        21
  58.6000        17
  58.6500        18
  58.7000        25
  58.7500        14
  58.8000        16
  58.8500        15
  58.9000        15
  58.9500        13
  59.0000        16
  59.0500        19
  59.1000        14
  59.1500        12
  59.2000         9
  59.2500        13
  59.3000        19
  59.3500        13
  59.4000        23
  59.4500        20
  59.5000        12
  59.5500        14
  59.6000        11
  59.6500        17
  59.7000        14
  59.7500        12
  59.8000        16
  59.8500        14
  59.9000        14
  59.9500        25
  60.0000        14
  60.0500        15
  60.1000        18
  60.1500        19
  60.2000        29
  60.2500        18
  60.3000        15
  60.3500        23
  60.4000        22
  60.4500        20
  60.5000        17
  60.5500        19
  60.6000        22
  60.6500        21
  60.7000        18
  60.7500        16
  60.8000        17
  60.8500        15
  60.9000        12
  60.9500        12
  61.0000        18
  61.0500        21
  61.1000        16
  61.1500        22
  61.2000        29
  61.2500        14
  61.3000        18
  61.3500        23
  61.4000        21
  61.4500        21
  61.5000        16
  61.5500        33
  61.6000        23
  61.6500        19
  61.7000        20
  61.7500        29
  61.8000        32
  61.8500        36
  61.9000        53
  61.9500        61
  62.0000       103
  62.0500       211
  62.1000       287
  62.1500       328
  62.2000       313
  62.2500       252
  62.3000       212
  62.3500       155
  62.4000       129
  62.4500       107
  62.5000        90
  62.5500        78
  62.6000        68
  62.6500        52
  62.7000        39
  62.7500        43
  62.8000        26
  62.8500        25
  62.9000        21
  62.9500        21
  63.0000        23
  63.0500        20
  63.1000        21
  63.1500        15
  63.2000        15
  63.2500        14
  63.3000        19
  63.3500        19
  63.4000        27
  63.4500        17
  63.5000        17
  63.5500        15
  63.6000        21
  63.6500        22
  63.7000        27
  63.7500        16
  63.8000        22
  63.8500        16
  63.9000        19
  63.9500        26
  64.0000        21
  64.0500        16
  64.1000        21
  64.1500        23
  64.2000        20
  64.2500        19
  64.3000        14
  64.3500        24
  64.4000        25
  64.4500        61
  64.5000        60
  64.5500        70
  64.6000        35
  64.6500        47
  64.7000        41
  64.7500        41
  64.8000        26
  64.8500        16
  64.9000        30
  64.9500        19
  65.0000        24
  65.0500        23
  65.1000        35
  65.1500        70
  65.2000       122
  65.2500       115
  65.3000       112
  65.3500        91
  65.4000        74
  65.4500        64
  65.5000        58
  65.5500        37
  65.6000        18
  65.6500        22
  65.7000        22
  65.7500        15
  65.8000        18
  65.8500        13
  65.9000        14
  65.9500        10
  66.0000        16
  66.0500        17
  66.1000        16
  66.1500        18
  66.2000        28
  66.2500        20
  66.3000        15
  66.3500        25
  66.4000        14
  66.4500        19
  66.5000        12
  66.5500        24
  66.6000        12
  66.6500        13
  66.7000        17
  66.7500        15
  66.8000        15
  66.8500        16
  66.9000        21
  66.9500         9
  67.0000        17
  67.0500        12
  67.1000        16
  67.1500        21
  67.2000        16
  67.2500        13
  67.3000        15
  67.3500        12
  67.4000        15
  67.4500        15
  67.5000        21
  67.5500        13
  67.6000         9
  67.6500        22
  67.7000        18
  67.7500        13
  67.8000        13
  67.8500        16
  67.9000        18
  67.9500        10
  68.0000        16
  68.0500        13
  68.1000        14
  68.1500        18
  68.2000        23
  68.2500         7
  68.3000        13
  68.3500        13
  68.4000         9
  68.4500         8
  68.5000        13
  68.5500        17
  68.6000        15
  68.6500         8
  68.7000        10
  68.7500        15
  68.8000        17
  68.8500        14
  68.9000        18
  68.9500        19
  69.0000        10
  69.0500        22
  69.1000         9
  69.1500         8
  69.2000        16
  69.2500        16
  69.3000        11
  69.3500         7
  69.4000        15
  69.4500         9
  69.5000        12
  69.5500        14
  69.6000        15
  69.6500        13
  69.7000        10
  69.7500        15
  69.8000        22
  69.8500        12
  69.9000        14
  69.9500        16
  70.0000        13
  70.0500        16
  70.1000        14
  70.1500        14
  70.2000        18
  70.2500        12
  70.3000        10
  70.3500        12
  70.4000         7
  70.4500        17
  70.5000        16
  70.5500        20
  70.6000        13
  70.6500        10
  70.7000        12
  70.7500        10
  70.8000        17
  70.8500        13
  70.9000         8
  70.9500        24
  71.0000        13
  71.0500        20
  71.1000        10
  71.1500        10
  71.2000        22
  71.2500        10
  71.3000        11
  71.3500        22
  71.4000        11
  71.4500        17
  71.5000        21
  71.5500        12
  71.6000        14
  71.6500        12
  71.7000        19
  71.7500        14
  71.8000        10
  71.8500        15
  71.9000        11
  71.9500         8
  72.0000         8
  72.0500        20
  72.1000         8
  72.1500         8
  72.2000         9
  72.2500        16
  72.3000        17
  72.3500        21
  72.4000        27
  72.4500        19
  72.5000        21
  72.5500        18
  72.6000        22
  72.6500        20
  72.7000        14
  72.7500         9
  72.8000        24
  72.8500        19
  72.9000         8
  72.9500        22
  73.0000        20
  73.0500        33
  73.1000        28
  73.1500        47
  73.2000        29
  73.2500        25
  73.3000        19
  73.3500        24
  73.4000        25
  73.4500        20
  73.5000        13
  73.5500         7
  73.6000        17
  73.6500        16
  73.7000        19
  73.7500        12
  73.8000        20
  73.8500        11
  73.9000        13
  73.9500        16
  74.0000        14
  74.0500        17
  74.1000        16
  74.1500        11
  74.2000        15
  74.2500        19
  74.3000        13
  74.3500        16
  74.4000        17
  74.4500        11
  74.5000        17
  74.5500        18
  74.6000        18
  74.6500        11
  74.7000        13
  74.7500        10
  74.8000        13
  74.8500        15
  74.9000        15
  74.9500        12
  75.0000        16
  75.0500        22
  75.1000        17
  75.1500        12
  75.2000         9
  75.2500        14
  75.3000        11
  75.3500         9
  75.4000        13
  75.4500         5
  75.5000         6
  75.5500        16
  75.6000        12
  75.6500        16
  75.7000         9
  75.7500         8
  75.8000        20
  75.8500         9
  75.9000        13
  75.9500        14
  76.0000        18
  76.0500        12
  76.1000        13
  76.1500        17
  76.2000         8
  76.2500        10
  76.3000        12
  76.3500        14
  76.4000        12
  76.4500        16
  76.5000        12
  76.5500        13
  76.6000        15
  76.6500        16
  76.7000        15
  76.7500        18
  76.8000        15
  76.8500        28
  76.9000        25
  76.9500        37
  77.0000        49
  77.0500        43
  77.1000        39
  77.1500        40
  77.2000        31
  77.2500        40
  77.3000        27
  77.3500        15
  77.4000        22
  77.4500        16
  77.5000        23
  77.5500        11
  77.6000        18
  77.6500        10
  77.7000        15
  77.7500        20
  77.8000         7
  77.8500         8
  77.9000        15
  77.9500        17
  78.0000         7
  78.0500        21
  78.1000        21
  78.1500        19
  78.2000        18
  78.2500        14
  78.3000        13
  78.3500        12
  78.4000        12
  78.4500        11
  78.5000        15
  78.5500        12
  78.6000        10
  78.6500        14
  78.7000         9
  78.7500        17
  78.8000        14
  78.8500        13
  78.9000        13
  78.9500         9
  79.0000        14
  79.0500        13
  79.1000        17
  79.1500        12
  79.2000         9
  79.2500        13
  79.3000        12
  79.3500        34
  79.4000        63
  79.4500        63
  79.5000        50
  79.5500        29
  79.6000        37
  79.6500        25
  79.7000        33
  79.7500        31
  79.8000        27
  79.8500        18
  79.9000        22
  79.9500        11
  80.0000        16
  80.0500        20
  80.1000        17
  80.1500         9
  80.2000        19
  80.2500        11
  80.3000        14
  80.3500        11
  80.4000        19
  80.4500        14
  80.5000        14
  80.5500         9
  80.6000        12
  80.6500         9
  80.7000        13
  80.7500        15
  80.8000         9
  80.8500         8
  80.9000        12
  80.9500        15
  81.0000        10
  81.0500         9
  81.1000        12
  81.1500        16
  81.2000        15
  81.2500        13
  81.3000        15
  81.3500         7
  81.4000         9
  81.4500         5
  81.5000        20
  81.5500        22
  81.6000        18
  81.6500        15
  81.7000        13
  81.7500         8
  81.8000        11
  81.8500        12
  81.9000        19
  81.9500        14
  82.0000        20
  82.0500        16
  82.1000        17
  82.1500        18
  82.2000         9
  82.2500        13
  82.3000        15
  82.3500        14
  82.4000         8
  82.4500        13
  82.5000        17
  82.5500        19
  82.6000        16
  82.6500        12
  82.7000        16
  82.7500        17
  82.8000        15
  82.8500        18
  82.9000        13
  82.9500        18
  83.0000        16
  83.0500        10
  83.1000        22
  83.1500        12
  83.2000        16
  83.2500        16
  83.3000        12
  83.3500        19
  83.4000        13
  83.4500        17
  83.5000        11
  83.5500        12
  83.6000        16
  83.6500        15
  83.7000        12
  83.7500         9
  83.8000         8
  83.8500        24
  83.9000        14
  83.9500        16
  84.0000        19
  84.0500        15
  84.1000        19
  84.1500        14
  84.2000        19
  84.2500        14
  84.3000        17
  84.3500        17
  84.4000        18
  84.4500        11
  84.5000        19
  84.5500        19
  84.6000        14
  84.6500        16
  84.7000        13
  84.7500        14
  84.8000        19
  84.8500        15
  84.9000        14
  84.9500        14
  85.0000        16
  85.0500        24
  85.1000        17
  85.1500        16
  85.2000        22
  85.2500        28
  85.3000        38
  85.3500        57
  85.4000        91
  85.4500        81
  85.5000        86
  85.5500        75
  85.6000        47
  85.6500        44
  85.7000        65
  85.7500        44
  85.8000        50
  85.8500        31
  85.9000        25
  85.9500        18
  86.0000        15
  86.0500        21
  86.1000        19
  86.1500        23
  86.2000        18
  86.2500        17
  86.3000        23
  86.3500        11
  86.4000        14
  86.4500         8
  86.5000        15
  86.5500        12
  86.6000        19
  86.6500        17
  86.7000        13
  86.7500        10
  86.8000        11
  86.8500        15
  86.9000        15
  86.9500        23
  87.0000        11
  87.0500        21
  87.1000        10
  87.1500        15
  87.2000        11
  87.2500        20
  87.3000        12
  87.3500        14
  87.4000        16
  87.4500        18
  87.5000        13
  87.5500        21
  87.6000        16
  87.6500        19
  87.7000        26
  87.7500        18
  87.8000        16
  87.8500         9
  87.9000        18
  87.9500        21
  88.0000        18
  88.0500        32
  88.1000        47
  88.1500        45
  88.2000        92
  88.2500        99
  88.3000        78
  88.3500        51
  88.4000        41
  88.4500        52
  88.5000        49
  88.5500        56
  88.6000        38
  88.6500        39
  88.7000        21
  88.7500        21
  88.8000        19
  88.8500        25
  88.9000        18
  88.9500        21
  89.0000        15
  89.0500        16
  89.1000        18
  89.1500         9
  89.2000        23
  89.2500        26
  89.3000        36
  89.3500        41
  89.4000        36
  89.4500        11
  89.5000        19
  89.5500        15
  89.6000        31
  89.6500        23
  89.7000        17
  89.7500        21
  89.8000        20
  89.8500        15
  89.9000        10
  89.9500        18
  90.0000        17
  90.0500        16
  90.1000        19
  90.1500        14
  90.2000        14
  90.2500        19
  90.3000        13
  90.3500        10
  90.4000         9
  90.4500        24
  90.5000         9
  90.5500        11
  90.6000         9
  90.6500        14
  90.7000        14
  90.7500        10
  90.8000        12
  90.8500        12
  90.9000        15
  90.9500        21
  91.0000         7
  91.0500        14
  91.1000        15
  91.1500        11
  91.2000        19
  91.2500        10
  91.3000        22
  91.3500        19
  91.4000        18
  91.4500         8
  91.5000        15
  91.5500         9
  91.6000        16
  91.6500        18
  91.7000        18
  91.7500        18
  91.8000        22
  91.8500        15
  91.9000        12
  91.9500        10
  92.0000        17
  92.0500        12
  92.1000        16
  92.1500         9
  92.2000         8
  92.2500        17
  92.3000        11
  92.3500        10
  92.4000        11
  92.4500        13
  92.5000        22
  92.5500         9
  92.6000         9
  92.6500        13
  92.7000        12
  92.7500        13
  92.8000         8
  92.8500        20
  92.9000        15
  92.9500        15
  93.0000        15
  93.0500        10
  93.1000        11
  93.1500         7
  93.2000        13
  93.2500        17
  93.3000        10
  93.3500        15
  93.4000        21
  93.4500        24
  93.5000        11
  93.5500         9
  93.6000        20
  93.6500        19
  93.7000        13
  93.7500        17
  93.8000        13
  93.8500        14
  93.9000        17
  93.9500        13
  94.0000        19
  94.0500        18
  94.1000        17
  94.1500        10
  94.2000        13
  94.2500        10
  94.3000        19
  94.3500        14
  94.4000        13
  94.4500        12
  94.5000         6
  94.5500        16
  94.6000        15
  94.6500        15
  94.7000        18
  94.7500        13
  94.8000        15
  94.8500        16
  94.9000        14
  94.9500         9
  95.0000        21
  95.0500        17
  95.1000        28
  95.1500        16
  95.2000        18
  95.2500        13
  95.3000        15
  95.3500        24
  95.4000        25
  95.4500        32
  95.5000        46
  95.5500        37
  95.6000        34
  95.6500        11
  95.7000        19
  95.7500        14
  95.8000        23
  95.8500        14
  95.9000        24
  95.9500        26
  96.0000        18
  96.0500        16
  96.1000        15
  96.1500         8
  96.2000        14
  96.2500         9
  96.3000        16
  96.3500        23
  96.4000        16
  96.4500        12
  96.5000        13
  96.5500        12
  96.6000        14
  96.6500        19
  96.7000        20
  96.7500        23
  96.8000        23
  96.8500        22
  96.9000        10
  96.9500        17
  97.0000        19
  97.0500        14
  97.1000         9
  97.1500         6
  97.2000        19
  97.2500        14
  97.3000        17
  97.3500        17
  97.4000        15
  97.4500        15
  97.5000        21
  97.5500        15
  97.6000        17
  97.6500        19
  97.7000        17
  97.7500        31
  97.8000        24
  97.8500        12
  97.9000        13
  97.9500        14
  98.0000        13
  98.0500        13
  98.1000        13
  98.1500        13
  98.2000        18
  98.2500        15
  98.3000        25
  98.3500        14
  98.4000        17
  98.4500        13
  98.5000        16
  98.5500         7
  98.6000        19
  98.6500        14
  98.7000        16
  98.7500        15
  98.8000        22
  98.8500        15
  98.9000        16
  98.9500        22
  99.0000        22
  99.0500        10
  99.1000        21
  99.1500        29
  99.2000        24
  99.2500        32
  99.3000        63
  99.3500        63
  99.4000        70
  99.4500        66
  99.5000        41
  99.5500        38
  99.6000        25
  99.6500        28
  99.7000        38
  99.7500        39
  99.8000        33
  99.8500        31
  99.9000        24
  99.9500        26
 100.0000        15
 100.0500        21
 100.1000        15
 100.1500        17
 100.2000        15
 100.2500        22
 100.3000         8
 100.3500        15
 100.4000        21
 100.4500        21
 100.5000        18
 100.5500        10
 100.6000        13
 100.6500        18
 100.7000        19
 100.7500        20
 100.8000        16
 100.8500        16
 100.9000        20
 100.9500        10
 101.0000         7
 101.0500        10
 101.1000        17
 101.1500        13
 101.2000        14
 101.2500        12
 101.3000        13
 101.3500         8
 101.4000        12
 101.4500         8
 101.5000        13
 101.5500        16
 101.6000        21
 101.6500        16
 101.7000        14
 101.7500        12
 101.8000        16
 101.8500        13
 101.9000         9
 101.9500        12
 102.0000        15
 102.0500        22
 102.1000        16
 102.1500        23
 102.2000        12
 102.2500        12
 102.3000        16
 102.3500        13
 102.4000         9
 102.4500        16
 102.5000        20
 102.5500        15
 102.6000        13
 102.6500        12
 102.7000        21
 102.7500        17
 102.8000        10
 102.8500        18
 102.9000        17
 102.9500        17
 103.0000        13
 103.0500        13
 103.1000        25
 103.1500        29
 103.2000        27
 103.2500        25
 103.3000        26
 103.3500        17
 103.4000        18
 103.4500        13
 103.5000        16
 103.5500        19
 103.6000        26
 103.6500        23
 103.7000         7
 103.7500        14
 103.8000        17
 103.8500        12
 103.9000        19
 103.9500        22
 104.0000        10
 104.0500        17
 104.1000        17
 104.1500        19
 104.2000        12
 104.2500        14
 104.3000        12
 104.3500        10
 104.4000        15
 104.4500        13
 104.5000        20
 104.5500         7
 104.6000        12
 104.6500        18
 104.7000        13
 104.7500        24
 104.8000        17
 104.8500        22
 104.9000        19
 104.9500        11
 105.0000        25
 105.0500        14
 105.1000         6
 105.1500        13
 105.2000        17
 105.2500        11
 105.3000        12
 105.3500        14
 105.4000        14
 105.4500        13
 105.5000        12
 105.5500        14
 105.6000        27
 105.6500        24
 105.7000        15
 105.7500        14
 105.8000        14
 105.8500        18
 105.9000        16
 105.9500        17
 106.0000        10
 106.0500        12
 106.1000        15
 106.1500        10
 106.2000        12
 106.2500        19
 106.3000        14
 106.3500        13
 106.4000        15
 106.4500        15
 106.5000        16
 106.5500        19
 106.6000        11
 106.6500        12
 106.7000        14
 106.7500        18
 106.8000         9
 106.8500        14
 106.9000        17
 106.9500         9
 107.0000        17
 107.0500        22
 107.1000        22
 107.1500        18
 107.2000        26
 107.2500        17
 107.3000        20
 107.3500        27
 107.4000        13
 107.4500        17
 107.5000        13
 107.5500        23
 107.6000        20
 107.6500        26
 107.7000        27
 107.7500        19
 107.8000        32
 107.8500        31
 107.9000        44
 107.9500        70
 108.0000        58
 108.0500        61
 108.1000        34
 108.1500        27
 108.2000        27
 108.2500        36
 108.3000        30
 108.3500        35
 108.4000        35
 108.4500        44
 108.5000        28
 108.5500        19
 108.6000        30
 108.6500        20
 108.7000        18
 108.7500        18
 108.8000        13
 108.8500        20
 108.9000        18
 108.9500        18
 109.0000        17
 109.0500        21
 109.1000         8
 109.1500        10
 109.2000        18
 109.2500        14
 109.3000        16
 109.3500        20
 109.4000        19
 109.4500         9
 109.5000         8
 109.5500        18
 109.6000        12
 109.6500        19
 109.7000        14
 109.7500        25
 109.8000        23
 109.8500        11
 109.9000        19
 109.9500        11
 110.0000        13
