  10.0000        18
  10.0500        19
  10.1000        25
  10.1500        13
  10.2000        23
  10.2500        12
  10.3000        13
  10.3500        22
  10.4000        20
  10.4500        18
  10.5000        18
  10.5500        11
  10.6000        11
  10.6500        14
  10.7000        21
  10.7500        18
  10.8000        22
  10.8500        13
  10.9000        18
  10.9500        12
  11.0000        19
  11.0500        18
  11.1000        15
  11.1500        15
  11.2000        14
  11.2500        16
  11.3000        16
  11.3500        15
  11.4000        16
  11.4500        13
  11.5000        24
  11.5500        10
  11.6000        16
  11.6500        16
  11.7000        15
  11.7500        19
  11.8000        15
  11.8500        14
  11.9000        13
  11.9500        17
  12.0000        15
  12.0500        11
  12.1000        16
  12.1500        22
  12.2000        13
  12.2500        14
  12.3000        14
  12.3500        14
  12.4000        15
  12.4500        12
  12.5000        13
  12.5500        18
  12.6000        21
  12.6500        16
  12.7000        11
  12.7500        21
  12.8000        16
  12.8500        12
  12.9000        19
  12.9500        12
  13.0000        18
  13.0500        14
  13.1000        15
  13.1500        16
  13.2000        13
  13.2500         8
  13.3000         7
  13.3500        12
  13.4000        11
  13.4500        19
  13.5000        14
  13.5500        12
  13.6000        17
  13.6500        20
  13.7000        12
  13.7500        10
  13.8000        16
  13.8500        13
  13.9000        10
  13.9500        16
  14.0000        12
  14.0500        12
  14.1000        14
  14.1500        13
  14.2000        12
  14.2500        23
  14.3000        10
  14.3500        13
  14.4000        14
  14.4500         6
  14.5000        16
  14.5500        17
  14.6000        12
  14.6500        20
  14.7000         7
  14.7500        11
  14.8000        12
  14.8500         8
  14.9000         9
  14.9500         8
  15.0000         8
  15.0500         7
  15.1000        18
  15.1500         7
  15.2000        11
  15.2500        18
  15.3000        17
  15.3500         8
  15.4000        14
  15.4500        10
  15.5000        19
  15.5500        18
  15.6000        16
  15.6500         8
  15.7000        17
  15.7500         8
  15.8000        11
  15.8500         8
  15.9000        23
  15.9500        14
  16.0000        10
  16.0500        17
  16.1000        17
  16.1500         9
  16.2000        15
  16.2500        17
  16.3000         5
  16.3500        14
  16.4000        16
  16.4500        10
  16.5000        12
  16.5500        17
  16.6000        20
  16.6500        18
  16.7000        14
  16.7500        10
  16.8000        14
  16.8500        15
  16.9000        16
  16.9500        15
  17.0000         8
  17.0500        15
  17.1000        14
  17.1500         9
  17.2000        14
  17.2500        14
  17.3000        15
  17.3500        15
  17.4000        11
  17.4500        12
  17.5000        16
  17.5500        20
  17.6000        12
  17.6500        15
  17.7000        13
  17.7500        18
  17.8000        16
  17.8500        13
  17.9000        10
  17.9500         9
  18.0000        16
  18.0500        14
  18.1000        13
  18.1500        10
  18.2000        17
  18.2500        18
  18.3000        12
  18.3500        12
  18.4000        13
  18.4500        10
  18.5000        11
  18.5500         9
  18.6000        12
  18.6500         7
  18.7000        11
  18.7500        18
  18.8000        15
  18.8500        12
  18.9000        10
  18.9500        16
  19.0000        10
  19.0500        10
  19.1000         5
  19.1500        17
  19.2000         3
  19.2500         7
  19.3000         5
  19.3500        14
  19.4000        11
  19.4500        17
  19.5000        10
  19.5500        13
  19.6000        12
  19.6500        11
  19.7000        11
  19.7500        12
  19.8000        14
  19.8500        16
  19.9000        12
  19.9500        10
  20.0000        14
  20.0500        15
  20.1000        10
  20.1500        11
  20.2000        10
  20.2500         9
  20.3000        11
  20.3500         7
  20.4000        11
  20.4500        11
  20.5000        13
  20.5500         9
  20.6000        15
  20.6500        11
  20.7000        14
  20.7500         4
  20.8000        12
  20.8500        13
  20.9000         6
  20.9500        13
  21.0000        10
  21.0500         9
  21.1000        10
  21.1500         7
  21.2000        10
  21.2500         3
  21.3000        17
  21.3500        13
  21.4000        15
  21.4500        14
  21.5000        11
  21.5500        12
  21.6000        15
  21.6500        10
  21.7000         8
  21.7500         6
  21.8000        13
  21.8500         8
  21.9000         7
  21.9500        17
  22.0000        12
  22.0500         6
  22.1000         9
  22.1500         9
  22.2000        12
  22.2500        14
  22.3000        14
  22.3500        15
  22.4000        12
  22.4500        16
  22.5000         7
  22.5500        13
  22.6000         8
  22.6500        16
  22.7000        12
  22.7500        10
  22.8000        15
  22.8500         9
  22.9000        15
  22.9500         9
  23.0000         6
  23.0500         5
  23.1000         7
  23.1500        12
  23.2000         6
  23.2500        11
  23.3000        14
  23.3500        17
  23.4000        18
  23.4500        12
  23.5000         9
  23.5500         7
  23.6000        16
  23.6500        11
  23.7000        10
  23.7500        12
  23.8000        13
  23.8500        17
  23.9000        10
  23.9500        13
  24.0000        15
  24.0500        11
  24.1000        14
  24.1500         8
  24.2000         9
  24.2500        14
  24.3000         9
  24.3500        10
  24.4000         8
  24.4500        15
  24.5000        19
  24.5500        10
  24.6000        10
  24.6500        10
  24.7000        16
  24.7500         7
  24.8000         9
  24.8500         8
  24.9000        12
  24.9500        11
  25.0000        13
  25.0500         8
  25.1000        16
  25.1500        12
  25.2000         8
  25.2500        11
  25.3000         7
  25.3500         8
  25.4000        12
  25.4500        10
  25.5000        11
  25.5500        13
  25.6000         7
  25.6500        12
  25.7000        13
  25.7500         7
  25.8000         6
  25.8500        12
  25.9000        13
  25.9500         7
  26.0000        20
  26.0500         9
  26.1000        12
  26.1500        12
  26.2000         8
  26.2500        12
  26.3000        14
  26.3500         6
  26.4000        16
  26.4500        13
  26.5000        10
  26.5500        15
  26.6000        11
  26.6500        15
  26.7000         6
  26.7500        18
  26.8000         9
  26.8500        16
  26.9000         7
  26.9500        12
  27.0000         9
  27.0500        12
  27.1000        15
  27.1500        13
  27.2000        16
  27.2500         7
  27.3000        18
  27.3500         8
  27.4000        13
  27.4500         9
  27.5000        13
  27.5500        21
  27.6000        14
  27.6500        12
  27.7000        11
  27.7500        14
  27.8000         8
  27.8500        18
  27.9000         8
  27.9500        11
  28.0000        12
  28.0500        11
  28.1000         9
  28.1500        17
  28.2000        16
  28.2500        14
  28.3000        15
  28.3500        19
  28.4000        21
  28.4500        37
  28.5000        48
  28.5500        37
  28.6000        29
  28.6500        21
  28.7000        12
  28.7500        15
  28.8000        21
  28.8500        21
  28.9000        20
  28.9500        15
  29.0000         8
  29.0500        19
  29.1000        11
  29.1500        13
  29.2000        12
  29.2500        14
  29.3000        18
  29.3500         8
  29.4000        12
  29.4500        19
  29.5000        11
  29.5500        22
  29.6000        15
  29.6500        15
  29.7000        20
  29.7500        19
  29.8000        13
  29.8500        26
  29.9000        22
  29.9500        17
  30.0000        13
  30.0500        24
  30.1000        11
  30.1500        16
  30.2000        16
  30.2500        26
  30.3000        23
  30.3500        29
  30.4000        39
  30.4500        88
  30.5000       161
  30.5500       340
  30.6000       503
  30.6500       553
  30.7000       480
  30.7500       283
  30.8000       152
  30.8500        85
  30.9000        34
  30.9500        22
  31.0000        29
  31.0500        31
  31.1000        23
  31.1500        28
  31.2000        21
  31.2500        31
  31.3000        25
  31.3500        22
  31.4000        24
  31.4500        22
  31.5000        23
  31.5500        21
  31.6000        22
  31.6500        24
  31.7000        22
  31.7500        46
  31.8000        47
  31.8500       134
  31.9000       277
  31.9500       603
  32.0000       734
  32.0500       870
  32.1000       763
  32.1500       468
  32.2000       238
  32.2500        96
  32.3000        48
  32.3500        24
  32.4000        18
  32.4500        22
  32.5000        28
  32.5500        17
  32.6000        20
  32.6500        17
  32.7000        20
  32.7500        16
  32.8000        25
  32.8500        14
  32.9000        21
  32.9500        11
  33.0000        21
  33.0500        13
  33.1000        16
  33.1500        17
  33.2000        11
  33.2500        12
  33.3000        15
  33.3500        16
  33.4000        12
  33.4500         8
  33.5000        13
  33.5500         9
  33.6000        18
  33.6500        18
  33.7000        16
  33.7500        16
  33.8000        12
  33.8500        21
  33.9000        16
  33.9500        16
  34.0000        11
  34.0500        14
  34.1000         5
  34.1500        16
  34.2000        11
  34.2500        11
  34.3000        18
  34.3500         9
  34.4000        15
  34.4500        18
  34.5000        14
  34.5500        23
  34.6000        18
  34.6500        14
  34.7000        14
  34.7500        10
  34.8000        12
  34.8500        13
  34.9000        14
  34.9500        15
  35.0000        15
  35.0500         9
  35.1000        20
  35.1500        10
  35.2000        13
  35.2500         6
  35.3000        16
  35.3500        14
  35.4000        14
  35.4500        13
  35.5000        11
  35.5500         6
  35.6000        19
  35.6500        13
  35.7000        10
  35.7500        24
  35.8000        13
  35.8500         9
  35.9000        10
  35.9500        14
  36.0000        10
  36.0500        19
  36.1000        10
  36.1500        18
  36.2000        11
  36.2500        10
  36.3000        18
  36.3500        10
  36.4000         6
  36.4500         5
  36.5000        10
  36.5500        12
  36.6000         9
  36.6500         9
  36.7000        12
  36.7500         5
  36.8000        10
  36.8500        15
  36.9000        12
  36.9500        17
  37.0000        14
  37.0500        13
  37.1000        22
  37.1500        14
  37.2000         9
  37.2500        16
  37.3000        15
  37.3500         8
  37.4000        11
  37.4500        12
  37.5000        14
  37.5500        11
  37.6000         9
  37.6500        11
  37.7000        11
  37.7500        10
  37.8000        12
  37.8500         5
  37.9000        10
  37.9500        10
  38.0000        15
  38.0500        13
  38.1000         7
  38.1500        15
  38.2000        14
  38.2500        13
  38.3000         4
  38.3500        17
  38.4000        12
  38.4500         7
  38.5000        19
  38.5500        11
  38.6000        17
  38.6500         8
  38.7000        11
  38.7500        13
  38.8000         7
  38.8500         5
  38.9000        12
  38.9500        11
  39.0000        14
  39.0500        12
  39.1000         9
  39.1500         9
  39.2000         8
  39.2500        12
  39.3000        10
  39.3500        13
  39.4000        10
  39.4500        12
  39.5000        12
  39.5500        11
  39.6000        10
  39.6500        16
  39.7000         6
  39.7500        17
  39.8000        12
  39.8500        11
  39.9000        14
  39.9500         8
  40.0000        17
  40.0500        17
  40.1000         9
  40.1500        16
  40.2000        11
  40.2500        18
  40.3000        12
  40.3500        19
  40.4000         9
  40.4500         9
  40.5000        12
  40.5500        12
  40.6000        14
  40.6500        13
  40.7000        18
  40.7500         9
  40.8000         9
  40.8500        12
  40.9000        11
  40.9500         9
  41.0000        14
  41.0500         5
  41.1000        13
  41.1500        10
  41.2000        15
  41.2500        13
  41.3000        11
  41.3500        11
  41.4000        15
  41.4500        14
  41.5000        13
  41.5500        12
  41.6000        11
  41.6500        20
  41.7000        20
  41.7500        13
  41.8000         9
  41.8500        15
  41.9000        12
  41.9500        11
  42.0000        16
  42.0500        17
  42.1000         5
  42.1500         8
  42.2000         7
  42.2500        19
  42.3000        16
  42.3500        21
  42.4000         4
  42.4500         8
  42.5000        11
  42.5500        10
  42.6000        16
  42.6500        14
  42.7000        14
  42.7500        13
  42.8000         9
  42.8500        13
  42.9000         7
  42.9500        18
  43.0000        11
  43.0500        24
  43.1000        15
  43.1500        20
  43.2000        16
  43.2500        14
  43.3000        11
  43.3500        16
  43.4000        17
  43.4500        23
  43.5000        20
  43.5500        20
  43.6000        27
  43.6500        27
  43.7000        42
  43.7500       126
  43.8000       345
  43.8500       347
  43.9000       316
  43.9500       296
  44.0000       178
  44.0500        85
  44.1000        61
  44.1500        30
  44.2000        26
  44.2500        14
  44.3000        23
  44.3500        17
  44.4000        21
  44.4500        22
  44.5000         9
  44.5500        26
  44.6000        17
  44.6500        25
  44.7000        45
  44.7500        97
  44.8000       229
  44.8500       391
  44.9000       511
  44.9500       566
  45.0000       418
  45.0500       320
  45.1000       172
  45.1500        77
  45.2000        39
  45.2500        20
  45.3000        26
  45.3500        13
  45.4000        16
  45.4500        22
  45.5000        16
  45.5500        17
  45.6000         5
  45.6500         9
  45.7000        12
  45.7500        13
  45.8000        10
  45.8500        17
  45.9000        15
  45.9500         9
  46.0000        12
  46.0500        13
  46.1000         9
  46.1500         8
  46.2000        10
  46.2500        14
  46.3000        16
  46.3500        11
  46.4000         9
  46.4500        17
  46.5000        14
  46.5500        14
  46.6000        16
  46.6500         7
  46.7000        22
  46.7500         4
  46.8000        13
  46.8500        13
  46.9000         7
  46.9500         9
  47.0000         9
  47.0500        11
  47.1000        13
  47.1500         7
  47.2000         9
  47.2500        10
  47.3000        17
  47.3500        15
  47.4000         8
  47.4500         9
  47.5000         9
  47.5500        13
  47.6000        18
  47.6500        11
  47.7000        16
  47.7500        14
  47.8000        11
  47.8500        13
  47.9000        18
  47.9500        12
  48.0000        11
  48.0500         6
  48.1000        17
  48.1500         6
  48.2000        13
  48.2500        12
  48.3000         6
  48.3500         7
  48.4000         7
  48.4500        14
  48.5000        13
  48.5500         7
  48.6000        12
  48.6500        13
  48.7000         6
  48.7500        10
  48.8000         7
  48.8500        12
  48.9000         8
  48.9500        12
  49.0000        16
  49.0500        11
  49.1000         8
  49.1500        16
  49.2000         8
  49.2500         9
  49.3000        12
  49.3500        12
  49.4000        11
  49.4500        11
  49.5000         8
  49.5500         7
  49.6000         9
  49.6500         9
  49.7000        10
  49.7500        10
  49.8000         9
  49.8500        12
  49.9000        14
  49.9500        11
  50.0000        13
  50.0500        16
  50.1000        12
  50.1500        16
  50.2000        11
  50.2500         9
  50.3000        13
  50.3500        14
  50.4000        10
  50.4500         9
  50.5000        13
  50.5500        12
  50.6000        11
  50.6500         8
  50.7000        10
  50.7500        15
  50.8000         7
  50.8500        16
  50.9000        10
  50.9500        13
  51.0000        13
  51.0500         7
  51.1000        16
  51.1500        15
  51.2000        13
  51.2500        11
  51.3000        12
  51.3500         7
  51.4000         5
  51.4500         9
  51.5000        10
  51.5500         8
  51.6000         6
  51.6500         8
  51.7000        12
  51.7500         8
  51.8000        17
  51.8500         6
  51.9000        12
  51.9500         9
  52.0000         7
  52.0500         6
  52.1000        10
  52.1500        13
  52.2000         8
  52.2500        11
  52.3000        12
  52.3500        13
  52.4000        10
  52.4500        14
  52.5000         9
  52.5500         7
  52.6000        13
  52.6500        12
  52.7000         3
  52.7500         6
  52.8000        12
  52.8500         9
  52.9000        13
  52.9500         8
  53.0000        10
  53.0500        17
  53.1000        11
  53.1500        13
  53.2000        15
  53.2500         8
  53.3000        12
  53.3500        13
  53.4000         8
  53.4500         9
  53.5000        17
  53.5500         8
  53.6000        13
  53.6500        10
  53.7000        14
  53.7500        14
  53.8000         8
  53.8500        11
  53.9000        13
  53.9500        11
  54.0000         9
  54.0500         7
  54.1000        14
  54.1500        10
  54.2000        10
  54.2500        12
  54.3000        13
  54.3500         3
  54.4000        10
  54.4500        10
  54.5000        10
  54.5500        12
  54.6000        11
  54.6500        14
  54.7000         6
  54.7500        11
  54.8000        10
  54.8500        13
  54.9000        16
  54.9500        10
  55.0000         9
  55.0500        19
  55.1000        12
  55.1500        24
  55.2000        22
  55.2500        71
  55.3000       111
  55.3500       101
  55.4000       112
  55.4500        77
  55.5000        70
  55.5500        65
  55.6000        28
  55.6500        17
  55.7000        15
  55.7500        13
  55.8000        12
  55.8500        12
  55.9000        14
  55.9500        16
  56.0000        14
  56.0500        15
  56.1000        10
  56.1500         9
  56.2000        11
  56.2500        10
  56.3000        15
  56.3500         8
  56.4000         8
  56.4500        10
  56.5000        13
  56.5500        21
  56.6000        10
  56.6500        11
  56.7000         8
  56.7500        14
  56.8000        12
  56.8500        12
  56.9000         8
  56.9500        20
  57.0000         6
  57.0500        14
  57.1000        18
  57.1500        11
  57.2000        13
  57.2500         8
  57.3000         5
  57.3500        11
  57.4000        14
  57.4500         8
  57.5000         7
  57.5500        13
  57.6000        11
  57.6500         8
  57.7000        13
  57.7500        14
  57.8000        10
  57.8500        17
  57.9000         9
  57.9500         5
  58.0000        15
  58.0500        12
  58.1000         7
  58.1500        12
  58.2000        15
  58.2500         8
  58.3000        12
  58.3500         9
  58.4000        11
  58.4500         9
  58.5000         9
  58.5500         9
  58.6000         6
  58.6500        15
  58.7000         5
  58.7500         8
  58.8000        12
  58.8500        10
  58.9000        21
  58.9500         5
  59.0000         9
  59.0500         5
  59.1000        11
  59.1500        12
  59.2000         7
  59.2500        10
  59.3000        11
  59.3500        21
  59.4000        18
  59.4500        12
  59.5000        10
  59.5500         9
  59.6000        11
  59.6500         9
  59.7000        11
  59.7500         9
  59.8000        16
  59.8500         9
  59.9000         9
  59.9500         9
  60.0000        13
  60.0500         7
  60.1000        13
  60.1500        12
  60.2000        13
  60.2500        15
  60.3000        12
  60.3500        11
  60.4000        13
  60.4500        12
  60.5000         6
  60.5500        10
  60.6000        19
  60.6500        13
  60.7000        14
  60.7500        12
  60.8000        10
  60.8500        11
  60.9000        14
  60.9500        10
  61.0000        10
  61.0500         8
  61.1000         6
  61.1500         9
  61.2000         8
  61.2500         9
  61.3000         8
  61.3500        14
  61.4000        11
  61.4500        10
  61.5000        10
  61.5500        16
  61.6000        15
  61.6500        15
  61.7000        19
  61.7500        18
  61.8000         9
  61.8500        14
  61.9000        12
  61.9500        13
  62.0000        14
  62.0500        10
  62.1000        21
  62.1500        14
  62.2000        16
  62.2500        18
  62.3000        21
  62.3500        26
  62.4000        37
  62.4500        80
  62.5000       135
  62.5500       215
  62.6000       188
  62.6500       140
  62.7000       105
  62.7500       131
  62.8000        75
  62.8500        41
  62.9000        20
  62.9500        16
  63.0000        16
  63.0500        14
  63.1000        13
  63.1500        16
  63.2000        20
  63.2500        10
  63.3000        20
  63.3500        18
  63.4000        18
  63.4500        14
  63.5000        22
  63.5500        23
  63.6000        21
  63.6500        26
  63.7000        47
  63.7500        63
  63.8000        74
  63.8500        54
  63.9000        42
  63.9500        32
  64.0000        40
  64.0500        23
  64.1000        23
  64.1500        24
  64.2000        16
  64.2500        19
  64.3000        13
  64.3500        12
  64.4000        18
  64.4500        34
  64.5000        85
  64.5500        89
  64.6000       106
  64.6500       105
  64.7000        72
  64.7500        85
  64.8000        60
  64.8500        35
  64.9000        26
  64.9500        18
  65.0000        18
  65.0500         8
  65.1000        16
  65.1500        15
  65.2000        18
  65.2500         8
  65.3000        21
  65.3500        10
  65.4000        16
  65.4500        12
  65.5000         9
  65.5500        10
  65.6000        10
  65.6500        12
  65.7000        12
  65.7500        14
  65.8000        12
  65.8500        11
  65.9000        18
  65.9500        16
  66.0000        12
  66.0500        17
  66.1000        10
  66.1500         6
  66.2000        14
  66.2500        13
  66.3000        10
  66.3500        17
  66.4000        10
  66.4500        16
  66.5000        12
  66.5500        17
  66.6000        19
  66.6500         5
  66.7000         5
  66.7500        12
  66.8000         8
  66.8500        14
  66.9000        10
  66.9500        14
  67.0000        12
  67.0500        11
  67.1000        10
  67.1500        12
  67.2000        12
  67.2500         9
  67.3000        10
  67.3500         6
  67.4000        13
  67.4500         9
  67.5000         7
  67.5500        18
  67.6000        13
  67.6500        14
  67.7000         6
  67.7500        20
  67.8000        13
  67.8500         8
  67.9000        15
  67.9500        13
  68.0000         8
  68.0500         9
  68.1000        13
  68.1500        16
  68.2000        10
  68.2500        15
  68.3000        13
  68.3500         8
  68.4000        16
  68.4500        10
  68.5000        11
  68.5500         9
  68.6000        16
  68.6500        12
  68.7000         8
  68.7500         9
  68.8000         6
  68.8500         7
  68.9000        15
  68.9500         8
  69.0000        14
  69.0500         8
  69.1000        18
  69.1500        11
  69.2000         8
  69.2500        12
  69.3000        10
  69.3500         8
  69.4000        10
  69.4500        17
  69.5000         7
  69.5500         7
  69.6000        10
  69.6500         9
  69.7000        15
  69.7500        16
  69.8000        14
  69.8500        19
  69.9000        13
  69.9500        14
  70.0000        14
  70.0500        10
  70.1000        13
  70.1500         8
  70.2000        12
  70.2500        11
  70.3000        13
  70.3500         9
  70.4000        12
  70.4500        11
  70.5000        13
  70.5500         9
  70.6000        15
  70.6500        16
  70.7000        15
  70.7500         6
  70.8000         5
  70.8500        15
  70.9000         8
  70.9500        12
  71.0000        17
  71.0500        10
  71.1000        15
  71.1500        13
  71.2000        16
  71.2500        15
  71.3000        12
  71.3500        11
  71.4000         9
  71.4500        13
  71.5000         9
  71.5500         8
  71.6000        14
  71.6500        15
  71.7000        13
  71.7500         8
  71.8000        11
  71.8500        13
  71.9000        13
  71.9500         8
  72.0000        16
  72.0500        16
  72.1000         6
  72.1500        15
  72.2000        21
  72.2500        29
  72.3000        39
  72.3500        81
  72.4000        81
  72.4500        86
  72.5000        63
  72.5500        49
  72.6000        49
  72.6500        46
  72.7000        32
  72.7500        17
  72.8000        18
  72.8500        18
  72.9000         8
  72.9500        15
  73.0000        25
  73.0500        34
  73.1000        57
  73.1500        61
  73.2000        53
  73.2500        49
  73.3000        52
  73.3500        55
  73.4000        47
  73.4500        25
  73.5000        31
  73.5500        16
  73.6000        12
  73.6500        15
  73.7000        14
  73.7500        20
  73.8000         9
  73.8500        16
  73.9000        16
  73.9500        10
  74.0000        12
  74.0500        14
  74.1000        15
  74.1500        10
  74.2000        15
  74.2500         7
  74.3000         5
  74.3500        14
  74.4000        12
  74.4500        15
  74.5000        12
  74.5500        12
  74.6000        12
  74.6500        10
  74.7000         8
  74.7500        19
  74.8000        17
  74.8500        10
  74.9000         5
  74.9500        14
  75.0000        16
  75.0500        15
  75.1000        14
  75.1500        11
  75.2000        12
  75.2500        12
  75.3000         6
  75.3500        11
  75.4000        16
  75.4500        13
  75.5000        16
  75.5500        11
  75.6000        11
  75.6500         8
  75.7000         7
  75.7500         7
  75.8000        16
  75.8500         5
  75.9000        11
  75.9500         9
  76.0000        14
  76.0500         4
  76.1000        13
  76.1500         9
  76.2000        15
  76.2500        13
  76.3000        11
  76.3500        13
  76.4000        11
  76.4500        12
  76.5000         9
  76.5500         8
  76.6000         8
  76.6500         8
  76.7000        11
  76.7500         7
  76.8000        13
  76.8500         7
  76.9000         6
  76.9500        11
  77.0000         6
  77.0500        12
  77.1000        12
  77.1500        11
  77.2000        16
  77.2500        11
  77.3000        14
  77.3500        13
  77.4000         6
  77.4500        12
  77.5000        16
  77.5500        10
  77.6000        12
  77.6500        20
  77.7000        11
  77.7500         9
  77.8000        12
  77.8500        13
  77.9000         8
  77.9500        12
  78.0000        14
  78.0500        10
  78.1000         9
  78.1500        16
  78.2000        14
  78.2500        16
  78.3000        12
  78.3500        13
  78.4000        13
  78.4500        10
  78.5000         8
  78.5500        11
  78.6000         9
  78.6500        12
  78.7000        12
  78.7500        14
  78.8000        15
  78.8500        20
  78.9000        12
  78.9500        14
  79.0000        14
  79.0500        12
  79.1000        14
  79.1500         9
  79.2000        22
  79.2500        16
  79.3000        19
  79.3500        23
  79.4000        86
  79.4500       116
  79.5000       131
  79.5500        97
  79.6000        77
  79.6500        72
  79.7000        65
  79.7500        70
  79.8000        47
  79.8500        27
  79.9000        18
  79.9500        17
  80.0000        12
  80.0500        12
  80.1000         7
  80.1500        15
  80.2000        10
  80.2500        11
  80.3000        15
  80.3500        14
  80.4000        12
  80.4500         8
  80.5000         8
  80.5500        12
  80.6000        11
  80.6500         9
  80.7000        18
  80.7500        11
  80.8000        16
  80.8500         8
  80.9000        11
  80.9500         6
  81.0000         9
  81.0500        21
  81.1000        17
  81.1500         7
  81.2000         8
  81.2500        12
  81.3000         7
  81.3500        11
  81.4000         9
  81.4500        10
  81.5000        12
  81.5500        17
  81.6000        13
  81.6500        15
  81.7000        12
  81.7500         6
  81.8000        13
  81.8500         8
  81.9000         9
  81.9500        11
  82.0000        18
  82.0500        13
  82.1000         9
  82.1500        15
  82.2000        14
  82.2500         8
  82.3000         7
  82.3500         8
  82.4000        11
  82.4500        14
  82.5000         8
  82.5500        11
  82.6000        12
  82.6500        11
  82.7000        11
  82.7500        10
  82.8000         6
  82.8500         6
  82.9000        13
  82.9500         8
  83.0000         8
  83.0500         8
  83.1000        15
  83.1500        14
  83.2000        11
  83.2500        10
  83.3000        11
  83.3500        10
  83.4000        10
  83.4500        12
  83.5000        11
  83.5500        14
  83.6000        16
  83.6500        11
  83.7000        15
  83.7500         6
  83.8000        11
  83.8500         4
  83.9000         8
  83.9500        10
  84.0000        10
  84.0500        12
  84.1000        13
  84.1500         5
  84.2000        10
  84.2500        11
  84.3000        11
  84.3500        12
  84.4000         9
  84.4500         8
  84.5000        12
  84.5500        10
  84.6000         3
  84.6500        11
  84.7000         6
  84.7500        11
  84.8000        15
  84.8500        11
  84.9000         6
  84.9500        16
  85.0000         8
  85.0500         5
  85.1000        11
  85.1500         8
  85.2000         4
  85.2500        13
  85.3000         7
  85.3500         7
  85.4000         9
  85.4500         6
  85.5000         8
  85.5500        19
  85.6000         9
  85.6500        12
  85.7000         7
  85.7500        13
  85.8000        10
  85.8500         7
  85.9000        11
  85.9500        12
  86.0000        10
  86.0500        16
  86.1000         7
  86.1500        10
  86.2000         9
  86.2500         8
  86.3000        13
  86.3500        10
  86.4000        12
  86.4500         3
  86.5000        10
  86.5500        11
  86.6000         6
  86.6500         7
  86.7000        11
  86.7500         9
  86.8000        13
  86.8500         6
  86.9000        11
  86.9500        19
  87.0000        10
  87.0500         9
  87.1000         9
  87.1500         7
  87.2000         8
  87.2500        18
  87.3000        10
  87.3500         4
  87.4000        14
  87.4500         7
  87.5000        14
  87.5500         8
  87.6000         7
  87.6500        17
  87.7000        15
  87.7500         6
  87.8000        10
  87.8500         6
  87.9000         6
  87.9500        11
  88.0000        13
  88.0500         9
  88.1000        13
  88.1500        10
  88.2000        11
  88.2500         9
  88.3000         8
  88.3500         9
  88.4000        16
  88.4500        12
  88.5000        13
  88.5500         8
  88.6000         7
  88.6500        10
  88.7000        15
  88.7500        14
  88.8000         7
  88.8500         7
  88.9000        12
  88.9500        13
  89.0000         9
  89.0500        10
  89.1000         8
  89.1500         9
  89.2000        20
  89.2500        19
  89.3000        31
  89.3500        39
  89.4000        62
  89.4500        40
  89.5000        28
  89.5500        25
  89.6000        24
  89.6500        29
  89.7000        32
  89.7500        25
  89.8000        19
  89.8500        21
  89.9000        11
  89.9500        15
  90.0000        12
  90.0500        11
  90.1000        11
  90.1500        13
  90.2000        12
  90.2500        16
  90.3000         8
  90.3500         9
  90.4000        13
  90.4500         8
  90.5000        11
  90.5500         9
  90.6000        11
  90.6500         9
  90.7000        10
  90.7500         8
  90.8000        11
  90.8500         6
  90.9000         6
  90.9500        15
  91.0000        11
  91.0500         8
  91.1000        12
  91.1500         7
  91.2000         9
  91.2500         8
  91.3000        13
  91.3500         8
  91.4000        10
  91.4500        11
  91.5000        15
  91.5500         9
  91.6000         9
  91.6500         7
  91.7000        14
  91.7500         9
  91.8000        14
  91.8500        11
  91.9000         6
  91.9500         7
  92.0000         8
  92.0500        15
  92.1000        10
  92.1500         6
  92.2000        10
  92.2500        11
  92.3000         2
  92.3500        16
  92.4000        15
  92.4500         8
  92.5000        11
  92.5500         4
  92.6000         8
  92.6500         9
  92.7000         3
  92.7500        13
  92.8000        13
  92.8500        14
  92.9000         8
  92.9500        14
  93.0000         5
  93.0500        12
  93.1000        11
  93.1500        12
  93.2000         6
  93.2500         6
  93.3000        13
  93.3500         5
  93.4000         8
  93.4500         8
  93.5000        11
  93.5500         7
  93.6000         7
  93.6500         5
  93.7000         8
  93.7500         8
  93.8000        10
  93.8500        11
  93.9000        13
  93.9500         5
  94.0000        10
  94.0500        15
  94.1000        13
  94.1500        12
  94.2000        12
  94.2500         9
  94.3000        10
  94.3500         9
  94.4000        12
  94.4500         9
  94.5000        14
  94.5500        14
  94.6000        14
  94.6500        10
  94.7000        12
  94.7500        14
  94.8000        21
  94.8500        10
  94.9000        14
  94.9500        16
  95.0000         9
  95.0500        17
  95.1000        20
  95.1500        30
  95.2000        24
  95.2500        21
  95.3000        18
  95.3500        19
  95.4000        20
  95.4500        30
  95.5000        40
  95.5500        34
  95.6000        34
  95.6500        26
  95.7000        21
  95.7500        16
  95.8000        16
  95.8500        30
  95.9000        18
  95.9500        18
  96.0000        16
  96.0500        18
  96.1000        13
  96.1500        18
  96.2000         6
  96.2500         8
  96.3000        18
  96.3500        18
  96.4000         8
  96.4500         9
  96.5000        17
  96.5500         8
  96.6000        11
  96.6500        24
  96.7000        24
  96.7500        21
  96.8000        18
  96.8500        23
  96.9000        22
  96.9500        15
  97.0000        28
  97.0500        17
  97.1000        21
  97.1500        14
  97.2000        17
  97.2500        24
  97.3000        28
  97.3500        32
  97.4000        31
  97.4500        39
  97.5000        30
  97.5500        22
  97.6000        11
  97.6500        14
  97.7000        27
  97.7500        35
  97.8000        23
  97.8500        18
  97.9000        20
  97.9500        15
  98.0000        18
  98.0500        13
  98.1000        15
  98.1500        12
  98.2000        10
  98.2500        15
  98.3000        14
  98.3500        20
  98.4000        14
  98.4500        14
  98.5000         6
  98.5500        11
  98.6000        12
  98.6500        14
  98.7000        10
  98.7500         6
  98.8000        13
  98.8500        21
  98.9000         8
  98.9500        11
  99.0000         5
  99.0500        13
  99.1000         8
  99.1500        16
  99.2000        10
  99.2500        15
  99.3000        15
  99.3500         9
  99.4000        11
  99.4500        11
  99.5000        12
  99.5500        19
  99.6000        10
  99.6500        12
  99.7000        11
  99.7500        11
  99.8000        19
  99.8500        14
  99.9000        13
  99.9500         8
 100.0000        11
 100.0500        13
 100.1000         9
 100.1500        14
 100.2000        14
 100.2500         9
 100.3000        13
 100.3500        12
 100.4000         9
 100.4500        14
 100.5000        10
 100.5500        13
 100.6000        11
 100.6500        15
 100.7000        15
 100.7500        18
 100.8000         8
 100.8500         9
 100.9000         5
 100.9500        10
 101.0000        17
 101.0500        10
 101.1000        12
 101.1500        15
 101.2000         7
 101.2500        12
 101.3000         7
 101.3500        12
 101.4000        12
 101.4500        15
 101.5000         8
 101.5500        13
 101.6000        16
 101.6500        21
 101.7000        10
 101.7500        13
 101.8000        17
 101.8500        11
 101.9000         9
 101.9500        12
 102.0000        15
 102.0500        16
 102.1000        11
 102.1500        14
 102.2000        13
 102.2500        10
 102.3000         8
 102.3500        12
 102.4000        11
 102.4500        16
 102.5000        14
 102.5500         8
 102.6000        13
 102.6500        14
 102.7000        18
 102.7500        15
 102.8000        12
 102.8500         9
 102.9000        10
 102.9500         8
 103.0000         7
 103.0500        16
 103.1000        22
 103.1500        20
 103.2000        34
 103.2500        30
 103.3000        34
 103.3500        21
 103.4000        11
 103.4500        17
 103.5000        16
 103.5500        13
 103.6000        29
 103.6500        24
 103.7000        21
 103.7500        14
 103.8000        17
 103.8500        13
 103.9000        15
 103.9500        13
 104.0000        10
 104.0500        13
 104.1000         7
 104.1500         7
 104.2000         8
 104.2500        14
 104.3000        13
 104.3500        10
 104.4000        10
 104.4500        16
 104.5000         9
 104.5500        11
 104.6000        14
 104.6500        11
 104.7000        14
 104.7500         8
 104.8000        23
 104.8500        13
 104.9000        10
 104.9500        20
 105.0000        21
 105.0500        11
 105.1000        15
 105.1500         9
 105.2000         9
 105.2500        19
 105.3000        17
 105.3500        13
 105.4000        19
 105.4500        11
 105.5000        10
 105.5500        10
 105.6000         8
 105.6500         4
 105.7000        11
 105.7500        13
 105.8000        18
 105.8500         4
 105.9000        17
 105.9500        16
 106.0000        12
 106.0500        14
 106.1000         5
 106.1500        17
 106.2000         7
 106.2500         6
 106.3000        18
 106.3500        18
 106.4000         9
 106.4500        12
 106.5000        10
 106.5500        11
 106.6000        11
 106.6500        10
 106.7000        12
 106.7500        11
 106.8000         7
 106.8500         9
 106.9000         9
 106.9500         8
 107.0000        13
 107.0500        14
 107.1000        11
 107.1500         8
 107.2000        15
 107.2500        13
 107.3000        11
 107.3500        10
 107.4000        10
 107.4500        10
 107.5000         4
 107.5500        12
 107.6000         7
 107.6500        13
 107.7000        13
 107.7500        20
 107.8000        11
 107.8500        15
 107.9000         8
 107.9500        14
 108.0000        11
 108.0500        16
 108.1000        12
 108.1500        10
 108.2000         9
 108.2500        17
 108.3000        12
 108.3500        11
 108.4000        10
 108.4500        16
 108.5000        17
 108.5500         8
 108.6000         3
 108.6500         9
 108.7000        10
 108.7500        17
 108.8000         6
 108.8500        11
 108.9000        16
 108.9500        12
 109.0000        11
 109.0500         5
 109.1000        11
 109.1500        15
 109.2000         9
 109.2500        11
 109.3000        10
 109.3500         9
 109.4000        12
 109.4500        13
 109.5000        13
 109.5500        11
 109.6000        12
 109.6500        14
 109.7000        12
 109.7500        20
 109.8000        11
 109.8500        10
 109.9000        11
 109.9500        15
 110.0000         7
