  10.0000        23
  10.0500        19
  10.1000        21
  10.1500        14
  10.2000        13
  10.2500        17
  10.3000        17
  10.3500        17
  10.4000        17
  10.4500        13
  10.5000        20
  10.5500        16
  10.6000        21
  10.6500        16
  10.7000        16
  10.7500        16
  10.8000        14
  10.8500        27
  10.9000        11
  10.9500        26
  11.0000        15
  11.0500        13
  11.1000        17
  11.1500        15
  11.2000        16
  11.2500        14
  11.3000        23
  11.3500        14
  11.4000        26
  11.4500        10
  11.5000        19
  11.5500         9
  11.6000        26
  11.6500        15
  11.7000        14
  11.7500         9
  11.8000        18
  11.8500        17
  11.9000        13
  11.9500        18
  12.0000        10
  12.0500        17
  12.1000        16
  12.1500        21
  12.2000        15
  12.2500        24
  12.3000        19
  12.3500        20
  12.4000        10
  12.4500        20
  12.5000         9
  12.5500        12
  12.6000        14
  12.6500        14
  12.7000        25
  12.7500        18
  12.8000        18
  12.8500        21
  12.9000        22
  12.9500        19
  13.0000        12
  13.0500         9
  13.1000         9
  13.1500        20
  13.2000        16
  13.2500        20
  13.3000        15
  13.3500        15
  13.4000        17
  13.4500        15
  13.5000        17
  13.5500        13
  13.6000        13
  13.6500        15
  13.7000        13
  13.7500        12
  13.8000        18
  13.8500        14
  13.9000        12
  13.9500        19
  14.0000        11
  14.0500        13
  14.1000        17
  14.1500        14
  14.2000        15
  14.2500        14
  14.3000        13
  14.3500        18
  14.4000        12
  14.4500        13
  14.5000        18
  14.5500        12
  14.6000        23
  14.6500        10
  14.7000        13
  14.7500        12
  14.8000         9
  14.8500        19
  14.9000        20
  14.9500        11
  15.0000        16
  15.0500        13
  15.1000        13
  15.1500         8
  15.2000        16
  15.2500        13
  15.3000        14
  15.3500         9
  15.4000         9
  15.4500        17
  15.5000        16
  15.5500         9
  15.6000        14
  15.6500        11
  15.7000        13
  15.7500         9
  15.8000        12
  15.8500        21
  15.9000        11
  15.9500        11
  16.0000        12
  16.0500         7
  16.1000         9
  16.1500        12
  16.2000        10
  16.2500        13
  16.3000         8
  16.3500        13
  16.4000         9
  16.4500        17
  16.5000        10
  16.5500        12
  16.6000         8
  16.6500        10
  16.7000        13
  16.7500        13
  16.8000        14
  16.8500        10
  16.9000        10
  16.9500        10
  17.0000        16
  17.0500         5
  17.1000        13
  17.1500        14
  17.2000        14
  17.2500        13
  17.3000         8
  17.3500        16
  17.4000        10
  17.4500        12
  17.5000        10
  17.5500        14
  17.6000        11
  17.6500        17
  17.7000        16
  17.7500        14
  17.8000        13
  17.8500        10
  17.9000        10
  17.9500        20
  18.0000        12
  18.0500        11
  18.1000        11
  18.1500        11
  18.2000        12
  18.2500        11
  18.3000         6
  18.3500         9
  18.4000         9
  18.4500        16
  18.5000        10
  18.5500        17
  18.6000        14
  18.6500         8
  18.7000        10
  18.7500        13
  18.8000        15
  18.8500         9
  18.9000         6
  18.9500        10
  19.0000        10
  19.0500        16
  19.1000        11
  19.1500         9
  19.2000        12
  19.2500        11
  19.3000        10
  19.3500        15
  19.4000        12
  19.4500        13
  19.5000         8
  19.5500        13
  19.6000        13
  19.6500         7
  19.7000        12
  19.7500        11
  19.8000        11
  19.8500        16
  19.9000         9
  19.9500        10
  20.0000        11
  20.0500        11
  20.1000         6
  20.1500         8
  20.2000         9
  20.2500        12
  20.3000         9
  20.3500         5
  20.4000        14
  20.4500         7
  20.5000         6
  20.5500        15
  20.6000        13
  20.6500         9
  20.7000        11
  20.7500        12
  20.8000        12
  20.8500        16
  20.9000        13
  20.9500        12
  21.0000        17
  21.0500         5
  21.1000        14
  21.1500         7
  21.2000        11
  21.2500        12
  21.3000        15
  21.3500        13
  21.4000         9
  21.4500         9
  21.5000        14
  21.5500        11
  21.6000        11
  21.6500        11
  21.7000        13
  21.7500         9
  21.8000        14
  21.8500         9
  21.9000         8
  21.9500        11
  22.0000         9
  22.0500        13
  22.1000        12
  22.1500        19
  22.2000         5
  22.2500        12
  22.3000        13
  22.3500         9
  22.4000         7
  22.4500        14
  22.5000         5
  22.5500        15
  22.6000         8
  22.6500        12
  22.7000         9
  22.7500        17
  22.8000        11
  22.8500         7
  22.9000         8
  22.9500        13
  23.0000        11
  23.0500         9
  23.1000        14
  23.1500         6
  23.2000        11
  23.2500        17
  23.3000        11
  23.3500        14
  23.4000        11
  23.4500         7
  23.5000        13
  23.5500        12
  23.6000        16
  23.6500        12
  23.7000        10
  23.7500         9
  23.8000        20
  23.8500         9
  23.9000         7
  23.9500        11
  24.0000        11
  24.0500        11
  24.1000        13
  24.1500        10
  24.2000        17
  24.2500        10
  24.3000        13
  24.3500        18
  24.4000        12
  24.4500        10
  24.5000         6
  24.5500        10
  24.6000        12
  24.6500         4
  24.7000        14
  24.7500        20
  24.8000        15
  24.8500        12
  24.9000        17
  24.9500         5
  25.0000        13
  25.0500        10
  25.1000         9
  25.1500        12
  25.2000        17
  25.2500         9
  25.3000        16
  25.3500         8
  25.4000        13
  25.4500        10
  25.5000        11
  25.5500        16
  25.6000        11
  25.6500        13
  25.7000        13
  25.7500         9
  25.8000        13
  25.8500        14
  25.9000         9
  25.9500         5
  26.0000        18
  26.0500        14
  26.1000         8
  26.1500        14
  26.2000        13
  26.2500        11
  26.3000        13
  26.3500         9
  26.4000        10
  26.4500         9
  26.5000        10
  26.5500        12
  26.6000        19
  26.6500        13
  26.7000        10
  26.7500        16
  26.8000        12
  26.8500         8
  26.9000        18
  26.9500        11
  27.0000        10
  27.0500        17
  27.1000        14
  27.1500         6
  27.2000        13
  27.2500        10
  27.3000        12
  27.3500        15
  27.4000         7
  27.4500        16
  27.5000        11
  27.5500        14
  27.6000         9
  27.6500        12
  27.7000        11
  27.7500        11
  27.8000        18
  27.8500         9
  27.9000        13
  27.9500        12
  28.0000        16
  28.0500         8
  28.1000         6
  28.1500        10
  28.2000        18
  28.2500        14
  28.3000        11
  28.3500        23
  28.4000        26
  28.4500        36
  28.5000        46
  28.5500        26
  28.6000        15
  28.6500        15
  28.7000        11
  28.7500        18
  28.8000        12
  28.8500        14
  28.9000        13
  28.9500        19
  29.0000        19
  29.0500        14
  29.1000        11
  29.1500        10
  29.2000        12
  29.2500        13
  29.3000        16
  29.3500        11
  29.4000        12
  29.4500        21
  29.5000        16
  29.5500        17
  29.6000        18
  29.6500        28
  29.7000        17
  29.7500        24
  29.8000        26
  29.8500        16
  29.9000        23
  29.9500        20
  30.0000        15
  30.0500        23
  30.1000        18
  30.1500        19
  30.2000        16
  30.2500        21
  30.3000        31
  30.3500        29
  30.4000        52
  30.4500        71
  30.5000       150
  30.5500       333
  30.6000       493
  30.6500       597
  30.7000       594
  30.7500       354
  30.8000       144
  30.8500        63
  30.9000        39
  30.9500        32
  31.0000        17
  31.0500        26
  31.1000        18
  31.1500        15
  31.2000        21
  31.2500        17
  31.3000        38
  31.3500        22
  31.4000        20
  31.4500        27
  31.5000        25
  31.5500        27
  31.6000        32
  31.6500        21
  31.7000        22
  31.7500        51
  31.8000        60
  31.8500       141
  31.9000       284
  31.9500       562
  32.0000       729
  32.0500       827
  32.1000       660
  32.1500       451
  32.2000       223
  32.2500        88
  32.3000        53
  32.3500        22
  32.4000        13
  32.4500        16
  32.5000        18
  32.5500        13
  32.6000        20
  32.6500        18
  32.7000        16
  32.7500        22
  32.8000        16
  32.8500        10
  32.9000        15
  32.9500        18
  33.0000        19
  33.0500         9
  33.1000        12
  33.1500        19
  33.2000        15
  33.2500        18
  33.3000        11
  33.3500        19
  33.4000        11
  33.4500        20
  33.5000        12
  33.5500        21
  33.6000        16
  33.6500        11
  33.7000         9
  33.7500        17
  33.8000        15
  33.8500        13
  33.9000        18
  33.9500         8
  34.0000        13
  34.0500        10
  34.1000        15
  34.1500        11
  34.2000        15
  34.2500        13
  34.3000        23
  34.3500        14
  34.4000        18
  34.4500        17
  34.5000        15
  34.5500        16
  34.6000        17
  34.6500        11
  34.7000         9
  34.7500        15
  34.8000         9
  34.8500        17
  34.9000        16
  34.9500        22
  35.0000        10
  35.0500        14
  35.1000        16
  35.1500        16
  35.2000        12
  35.2500        10
  35.3000        14
  35.3500        14
  35.4000         6
  35.4500        10
  35.5000        13
  35.5500        12
  35.6000        12
  35.6500         8
  35.7000        21
  35.7500        17
  35.8000        11
  35.8500        14
  35.9000         8
  35.9500        18
  36.0000        12
  36.0500        16
  36.1000        14
  36.1500        11
  36.2000        17
  36.2500        12
  36.3000        12
  36.3500        11
  36.4000         7
  36.4500        11
  36.5000        18
  36.5500        17
  36.6000        13
  36.6500        13
  36.7000        10
  36.7500        19
  36.8000        14
  36.8500        15
  36.9000        15
  36.9500        13
  37.0000        16
  37.0500        13
  37.1000        12
  37.1500         7
  37.2000        15
  37.2500        11
  37.3000        12
  37.3500         5
  37.4000        13
  37.4500         8
  37.5000        14
  37.5500        21
  37.6000         8
  37.6500        11
  37.7000         7
  37.7500         8
  37.8000        15
  37.8500        14
  37.9000         9
  37.9500        19
  38.0000        12
  38.0500        16
  38.1000        11
  38.1500         9
  38.2000        14
  38.2500        13
  38.3000        11
  38.3500        15
  38.4000        17
  38.4500        12
  38.5000        14
  38.5500        13
  38.6000         9
  38.6500         7
  38.7000         8
  38.7500        16
  38.8000         9
  38.8500        13
  38.9000        19
  38.9500        15
  39.0000        11
  39.0500        11
  39.1000        14
  39.1500        12
  39.2000         7
  39.2500        11
  39.3000        13
  39.3500         9
  39.4000        16
  39.4500        11
  39.5000        13
  39.5500         5
  39.6000        12
  39.6500        12
  39.7000        12
  39.7500         6
  39.8000        21
  39.8500        16
  39.9000         6
  39.9500         8
  40.0000        11
  40.0500        15
  40.1000        11
  40.1500        11
  40.2000        13
  40.2500        13
  40.3000        11
  40.3500         9
  40.4000        11
  40.4500        15
  40.5000        11
  40.5500        11
  40.6000        11
  40.6500        16
  40.7000        17
  40.7500        16
  40.8000        13
  40.8500        11
  40.9000        11
  40.9500        17
  41.0000        11
  41.0500        13
  41.1000        13
  41.1500         8
  41.2000        12
  41.2500        10
  41.3000        15
  41.3500         9
  41.4000        13
  41.4500        12
  41.5000        19
  41.5500        16
  41.6000        11
  41.6500        11
  41.7000        10
  41.7500         9
  41.8000        11
  41.8500         8
  41.9000         7
  41.9500         7
  42.0000         8
  42.0500         7
  42.1000        18
  42.1500         8
  42.2000         7
  42.2500        12
  42.3000         9
  42.3500        14
  42.4000        13
  42.4500        18
  42.5000        11
  42.5500        10
  42.6000         8
  42.6500        14
  42.7000        16
  42.7500        10
  42.8000        12
  42.8500         9
  42.9000        10
  42.9500        15
  43.0000        13
  43.0500         9
  43.1000        12
  43.1500        18
  43.2000        15
  43.2500        11
  43.3000         9
  43.3500        22
  43.4000        13
  43.4500        16
  43.5000        11
  43.5500        18
  43.6000        24
  43.6500        34
  43.7000        43
  43.7500        69
  43.8000       197
  43.8500       342
  43.9000       379
  43.9500       279
  44.0000       209
  44.0500       123
  44.1000        58
  44.1500        33
  44.2000        30
  44.2500        16
  44.3000        22
  44.3500        26
  44.4000        19
  44.4500        12
  44.5000        17
  44.5500        17
  44.6000        31
  44.6500        36
  44.7000        35
  44.7500        80
  44.8000       238
  44.8500       448
  44.9000       504
  44.9500       502
  45.0000       401
  45.0500       298
  45.1000       150
  45.1500        63
  45.2000        47
  45.2500        29
  45.3000        15
  45.3500        19
  45.4000        12
  45.4500        21
  45.5000        12
  45.5500        13
  45.6000        12
  45.6500         8
  45.7000        18
  45.7500        14
  45.8000        10
  45.8500        17
  45.9000         9
  45.9500        15
  46.0000        16
  46.0500        17
  46.1000        11
  46.1500         9
  46.2000        10
  46.2500        16
  46.3000        12
  46.3500         8
  46.4000        16
  46.4500         9
  46.5000         9
  46.5500         7
  46.6000        16
  46.6500        13
  46.7000        12
  46.7500         3
  46.8000        13
  46.8500        14
  46.9000        11
  46.9500        13
  47.0000         8
  47.0500        13
  47.1000        12
  47.1500         4
  47.2000        21
  47.2500        10
  47.3000         6
  47.3500        14
  47.4000         9
  47.4500        13
  47.5000         7
  47.5500         6
  47.6000         6
  47.6500         7
  47.7000        11
  47.7500         6
  47.8000        14
  47.8500        10
  47.9000        12
  47.9500         9
  48.0000        12
  48.0500        12
  48.1000        13
  48.1500        11
  48.2000        12
  48.2500        11
  48.3000        12
  48.3500         9
  48.4000         7
  48.4500         9
  48.5000         7
  48.5500        12
  48.6000        12
  48.6500         8
  48.7000         5
  48.7500        15
  48.8000        11
  48.8500         9
  48.9000        11
  48.9500         6
  49.0000         8
  49.0500        13
  49.1000        14
  49.1500         7
  49.2000        14
  49.2500        11
  49.3000        15
  49.3500        10
  49.4000         5
  49.4500        11
  49.5000         7
  49.5500        10
  49.6000        11
  49.6500        11
  49.7000         3
  49.7500        15
  49.8000        11
  49.8500        10
  49.9000         8
  49.9500        11
  50.0000        19
  50.0500         9
  50.1000         8
  50.1500         9
  50.2000        13
  50.2500         8
  50.3000        10
  50.3500        13
  50.4000        13
  50.4500        12
  50.5000        10
  50.5500         7
  50.6000        14
  50.6500         8
  50.7000         6
  50.7500        13
  50.8000        16
  50.8500        11
  50.9000        16
  50.9500        10
  51.0000         5
  51.0500        10
  51.1000        12
  51.1500         9
  51.2000         9
  51.2500         7
  51.3000        11
  51.3500         8
  51.4000        11
  51.4500        12
  51.5000        14
  51.5500        10
  51.6000        11
  51.6500        11
  51.7000         6
  51.7500         9
  51.8000         8
  51.8500        12
  51.9000        12
  51.9500        14
  52.0000        16
  52.0500        14
  52.1000         6
  52.1500        15
  52.2000        12
  52.2500         3
  52.3000        11
  52.3500         8
  52.4000        11
  52.4500         6
  52.5000         6
  52.5500         9
  52.6000         8
  52.6500         6
  52.7000         3
  52.7500        10
  52.8000        10
  52.8500        11
  52.9000         9
  52.9500        15
  53.0000        16
  53.0500        10
  53.1000         9
  53.1500         6
  53.2000        13
  53.2500         6
  53.3000        14
  53.3500        18
  53.4000         9
  53.4500        13
  53.5000        17
  53.5500        13
  53.6000        13
  53.6500        11
  53.7000        14
  53.7500        12
  53.8000        13
  53.8500         5
  53.9000        11
  53.9500         3
  54.0000        16
  54.0500        13
  54.1000        15
  54.1500         7
  54.2000        13
  54.2500         5
  54.3000        10
  54.3500        10
  54.4000         9
  54.4500        13
  54.5000        16
  54.5500         9
  54.6000        11
  54.6500        12
  54.7000         9
  54.7500         9
  54.8000        11
  54.8500        11
  54.9000        10
  54.9500        10
  55.0000        14
  55.0500        15
  55.1000        16
  55.1500        14
  55.2000        35
  55.2500        68
  55.3000       106
  55.3500       112
  55.4000       131
  55.4500        78
  55.5000        80
  55.5500        63
  55.6000        45
  55.6500        15
  55.7000        13
  55.7500        18
  55.8000        12
  55.8500        12
  55.9000        13
  55.9500        14
  56.0000        11
  56.0500         6
  56.1000        15
  56.1500         8
  56.2000        12
  56.2500        15
  56.3000        14
  56.3500        13
  56.4000        18
  56.4500         9
  56.5000        12
  56.5500        13
  56.6000        11
  56.6500         9
  56.7000         8
  56.7500         8
  56.8000        11
  56.8500        14
  56.9000         8
  56.9500        12
  57.0000        10
  57.0500         4
  57.1000        14
  57.1500        12
  57.2000        11
  57.2500        16
  57.3000        10
  57.3500        15
  57.4000         7
  57.4500        11
  57.5000         6
  57.5500        12
  57.6000         8
  57.6500        13
  57.7000        10
  57.7500        10
  57.8000        14
  57.8500         7
  57.9000        13
  57.9500        14
  58.0000        10
  58.0500         6
  58.1000         2
  58.1500        12
  58.2000         9
  58.2500        13
  58.3000         8
  58.3500        11
  58.4000        12
  58.4500        15
  58.5000        11
  58.5500        14
  58.6000        10
  58.6500        13
  58.7000         9
  58.7500        18
  58.8000        10
  58.8500        10
  58.9000         8
  58.9500        15
  59.0000        11
  59.0500         8
  59.1000        12
  59.1500        16
  59.2000        10
  59.2500        15
  59.3000         8
  59.3500         6
  59.4000        11
  59.4500        11
  59.5000        13
  59.5500        13
  59.6000        10
  59.6500        10
  59.7000        14
  59.7500         8
  59.8000        11
  59.8500         7
  59.9000        17
  59.9500         9
  60.0000        18
  60.0500        11
  60.1000        15
  60.1500         8
  60.2000         7
  60.2500        20
  60.3000        16
  60.3500        16
  60.4000        13
  60.4500        14
  60.5000        14
  60.5500        17
  60.6000        13
  60.6500        14
  60.7000        15
  60.7500         8
  60.8000         8
  60.8500        13
  60.9000        17
  60.9500         9
  61.0000        14
  61.0500        14
  61.1000         7
  61.1500        11
  61.2000         5
  61.2500        11
  61.3000         9
  61.3500         9
  61.4000        16
  61.4500        15
  61.5000        23
  61.5500        16
  61.6000        15
  61.6500        13
  61.7000        13
  61.7500         9
  61.8000        14
  61.8500        12
  61.9000        16
  61.9500         7
  62.0000         8
  62.0500         7
  62.1000        14
  62.1500         9
  62.2000        15
  62.2500        15
  62.3000        15
  62.3500        26
  62.4000        47
  62.4500        63
  62.5000       107
  62.5500       160
  62.6000       166
  62.6500       121
  62.7000        73
  62.7500        67
  62.8000        62
  62.8500        33
  62.9000        21
  62.9500        15
  63.0000        12
  63.0500        12
  63.1000        15
  63.1500         7
  63.2000        17
  63.2500        14
  63.3000        11
  63.3500        15
  63.4000        10
  63.4500        14
  63.5000        18
  63.5500        22
  63.6000        10
  63.6500        24
  63.7000        45
  63.7500        42
  63.8000        74
  63.8500        56
  63.9000        44
  63.9500        43
  64.0000        29
  64.0500        30
  64.1000        17
  64.1500        20
  64.2000        17
  64.2500        21
  64.3000        15
  64.3500        21
  64.4000        20
  64.4500        39
  64.5000        95
  64.5500       100
  64.6000       129
  64.6500       112
  64.7000        71
  64.7500        78
  64.8000        66
  64.8500        43
  64.9000        21
  64.9500        21
  65.0000        23
  65.0500        14
  65.1000        18
  65.1500        21
  65.2000        13
  65.2500        13
  65.3000        11
  65.3500        14
  65.4000        13
  65.4500        12
  65.5000        10
  65.5500        17
  65.6000        11
  65.6500        12
  65.7000        14
  65.7500        11
  65.8000        15
  65.8500        13
  65.9000        13
  65.9500        12
  66.0000        14
  66.0500         9
  66.1000        16
  66.1500        19
  66.2000        10
  66.2500        13
  66.3000        19
  66.3500        17
  66.4000        10
  66.4500        12
  66.5000        17
  66.5500        10
  66.6000        11
  66.6500        16
  66.7000        16
  66.7500        13
  66.8000        11
  66.8500        10
  66.9000        12
  66.9500         6
  67.0000        15
  67.0500        19
  67.1000        14
  67.1500         9
  67.2000         7
  67.2500        13
  67.3000        14
  67.3500        15
  67.4000        14
  67.4500        10
  67.5000        12
  67.5500         8
  67.6000        17
  67.6500        15
  67.7000         6
  67.7500        10
  67.8000         9
  67.8500        15
  67.9000        14
  67.9500         6
  68.0000        11
  68.0500         7
  68.1000        14
  68.1500        14
  68.2000         9
  68.2500        13
  68.3000         5
  68.3500        14
  68.4000        11
  68.4500         7
  68.5000        15
  68.5500         9
  68.6000        16
  68.6500        11
  68.7000        14
  68.7500        10
  68.8000        14
  68.8500         6
  68.9000        19
  68.9500        16
  69.0000         7
  69.0500         6
  69.1000        15
  69.1500        13
  69.2000        11
  69.2500         6
  69.3000        13
  69.3500        12
  69.4000        13
  69.4500        21
  69.5000         5
  69.5500        11
  69.6000        10
  69.6500        17
  69.7000        17
  69.7500        15
  69.8000        14
  69.8500         8
  69.9000        11
  69.9500        11
  70.0000         7
  70.0500        14
  70.1000        19
  70.1500        10
  70.2000        12
  70.2500        15
  70.3000        14
  70.3500        13
  70.4000        14
  70.4500        10
  70.5000        12
  70.5500        17
  70.6000        12
  70.6500        16
  70.7000         9
  70.7500        15
  70.8000        14
  70.8500        15
  70.9000         9
  70.9500        12
  71.0000        12
  71.0500        14
  71.1000        11
  71.1500        17
  71.2000        18
  71.2500        14
  71.3000         8
  71.3500        11
  71.4000         9
  71.4500        14
  71.5000        16
  71.5500         9
  71.6000        13
  71.6500        13
  71.7000        14
  71.7500         9
  71.8000         8
  71.8500         7
  71.9000        22
  71.9500        15
  72.0000        10
  72.0500        11
  72.1000         8
  72.1500        10
  72.2000        14
  72.2500        24
  72.3000        28
  72.3500        61
  72.4000        68
  72.4500        74
  72.5000        67
  72.5500        43
  72.6000        43
  72.6500        47
  72.7000        31
  72.7500        21
  72.8000        18
  72.8500        20
  72.9000        16
  72.9500        21
  73.0000        26
  73.0500        29
  73.1000        66
  73.1500        79
  73.2000        71
  73.2500        57
  73.3000        58
  73.3500        52
  73.4000        48
  73.4500        33
  73.5000        27
  73.5500        19
  73.6000        14
  73.6500        14
  73.7000         7
  73.7500        15
  73.8000         8
  73.8500        13
  73.9000        13
  73.9500        12
  74.0000        14
  74.0500         7
  74.1000         9
  74.1500        11
  74.2000        10
  74.2500         9
  74.3000        10
  74.3500        18
  74.4000         9
  74.4500         9
  74.5000        19
  74.5500        14
  74.6000        11
  74.6500        17
  74.7000        14
  74.7500        19
  74.8000        13
  74.8500        12
  74.9000         6
  74.9500        14
  75.0000        11
  75.0500         6
  75.1000        13
  75.1500        13
  75.2000        10
  75.2500        11
  75.3000         9
  75.3500        10
  75.4000         7
  75.4500        13
  75.5000        14
  75.5500        11
  75.6000        12
  75.6500        11
  75.7000        14
  75.7500        17
  75.8000         9
  75.8500        12
  75.9000         7
  75.9500        10
  76.0000         7
  76.0500         9
  76.1000         8
  76.1500        13
  76.2000        11
  76.2500        13
  76.3000        13
  76.3500        10
  76.4000        13
  76.4500        17
  76.5000        14
  76.5500        12
  76.6000        15
  76.6500        16
  76.7000        19
  76.7500         9
  76.8000        15
  76.8500        14
  76.9000        10
  76.9500        12
  77.0000        10
  77.0500        11
  77.1000        14
  77.1500         8
  77.2000        10
  77.2500        11
  77.3000        10
  77.3500        10
  77.4000        13
  77.4500         8
  77.5000        11
  77.5500         9
  77.6000        10
  77.6500        15
  77.7000        12
  77.7500        12
  77.8000        13
  77.8500         6
  77.9000        11
  77.9500        17
  78.0000        10
  78.0500         9
  78.1000        11
  78.1500        10
  78.2000        15
  78.2500        12
  78.3000        13
  78.3500        18
  78.4000        10
  78.4500         7
  78.5000        18
  78.5500         8
  78.6000        19
  78.6500        14
  78.7000         7
  78.7500        15
  78.8000        11
  78.8500        15
  78.9000        10
  78.9500        15
  79.0000        14
  79.0500        13
  79.1000         6
  79.1500        20
  79.2000        12
  79.2500        18
  79.3000        15
  79.3500        29
  79.4000        56
  79.4500        90
  79.5000       111
  79.5500       104
  79.6000        69
  79.6500        71
  79.7000        67
  79.7500        69
  79.8000        54
  79.8500        22
  79.9000        25
  79.9500        14
  80.0000        12
  80.0500        11
  80.1000        10
  80.1500        11
  80.2000        13
  80.2500        10
  80.3000        18
  80.3500         9
  80.4000        10
  80.4500        11
  80.5000        15
  80.5500         8
  80.6000        10
  80.6500         9
  80.7000        12
  80.7500        13
  80.8000        17
  80.8500        12
  80.9000        10
  80.9500        10
  81.0000        16
  81.0500         6
  81.1000         9
  81.1500         9
  81.2000         6
  81.2500        16
  81.3000         9
  81.3500        18
  81.4000         9
  81.4500         9
  81.5000        17
  81.5500         9
  81.6000         9
  81.6500        12
  81.7000        10
  81.7500         8
  81.8000         8
  81.8500         8
  81.9000        12
  81.9500        12
  82.0000        10
  82.0500         6
  82.1000         9
  82.1500        10
  82.2000        12
  82.2500        13
  82.3000        12
  82.3500        15
  82.4000         8
  82.4500         5
  82.5000        12
  82.5500        12
  82.6000         7
  82.6500        13
  82.7000        11
  82.7500         6
  82.8000         8
  82.8500         9
  82.9000         8
  82.9500        11
  83.0000        14
  83.0500         9
  83.1000        14
  83.1500         9
  83.2000        10
  83.2500        11
  83.3000         8
  83.3500        13
  83.4000         8
  83.4500        10
  83.5000         9
  83.5500         7
  83.6000         8
  83.6500         9
  83.7000        12
  83.7500        10
  83.8000         8
  83.8500        10
  83.9000        14
  83.9500        11
  84.0000        15
  84.0500         5
  84.1000         5
  84.1500         9
  84.2000         6
  84.2500        11
  84.3000        14
  84.3500        12
  84.4000        12
  84.4500        10
  84.5000        12
  84.5500        14
  84.6000         9
  84.6500        10
  84.7000        14
  84.7500         3
  84.8000         7
  84.8500        10
  84.9000        10
  84.9500        17
  85.0000        13
  85.0500         7
  85.1000        11
  85.1500        11
  85.2000        12
  85.2500         6
  85.3000         7
  85.3500         8
  85.4000        10
  85.4500         9
  85.5000         9
  85.5500         7
  85.6000         9
  85.6500        17
  85.7000         6
  85.7500         7
  85.8000         8
  85.8500         9
  85.9000         8
  85.9500         5
  86.0000        11
  86.0500         9
  86.1000        12
  86.1500        13
  86.2000        10
  86.2500         7
  86.3000        11
  86.3500        13
  86.4000        12
  86.4500        11
  86.5000        12
  86.5500        15
  86.6000        14
  86.6500         8
  86.7000        11
  86.7500        13
  86.8000         6
  86.8500        14
  86.9000        14
  86.9500         6
  87.0000         9
  87.0500         5
  87.1000        12
  87.1500        11
  87.2000        14
  87.2500         9
  87.3000        10
  87.3500         8
  87.4000        12
  87.4500        13
  87.5000        12
  87.5500         7
  87.6000         6
  87.6500        14
  87.7000        11
  87.7500         5
  87.8000        14
  87.8500        13
  87.9000         6
  87.9500         5
  88.0000        13
  88.0500        12
  88.1000         9
  88.1500        12
  88.2000        14
  88.2500        18
  88.3000        13
  88.3500        14
  88.4000         8
  88.4500        11
  88.5000        12
  88.5500        18
  88.6000         7
  88.6500        11
  88.7000        12
  88.7500         9
  88.8000        14
  88.8500        14
  88.9000        13
  88.9500        14
  89.0000        25
  89.0500        15
  89.1000        10
  89.1500        19
  89.2000        19
  89.2500        16
  89.3000        32
  89.3500        38
  89.4000        44
  89.4500        52
  89.5000        40
  89.5500        28
  89.6000        34
  89.6500        25
  89.7000        35
  89.7500        21
  89.8000        29
  89.8500        17
  89.9000        15
  89.9500        15
  90.0000        18
  90.0500         5
  90.1000         9
  90.1500         7
  90.2000        13
  90.2500        11
  90.3000        10
  90.3500        16
  90.4000         6
  90.4500         7
  90.5000         8
  90.5500        12
  90.6000         8
  90.6500        13
  90.7000        14
  90.7500        11
  90.8000        11
  90.8500        15
  90.9000         6
  90.9500        10
  91.0000         6
  91.0500         9
  91.1000        10
  91.1500        12
  91.2000        12
  91.2500         7
  91.3000         8
  91.3500         8
  91.4000         9
  91.4500        10
  91.5000        15
  91.5500        14
  91.6000        11
  91.6500        15
  91.7000         7
  91.7500         7
  91.8000         7
  91.8500        15
  91.9000        12
  91.9500         8
  92.0000        11
  92.0500        14
  92.1000        14
  92.1500        10
  92.2000        11
  92.2500         9
  92.3000        17
  92.3500        15
  92.4000         9
  92.4500        10
  92.5000         6
  92.5500         9
  92.6000        11
  92.6500        16
  92.7000         8
  92.7500        13
  92.8000        14
  92.8500         6
  92.9000         6
  92.9500        15
  93.0000        12
  93.0500        12
  93.1000        11
  93.1500         6
  93.2000        13
  93.2500        13
  93.3000        10
  93.3500         8
  93.4000        17
  93.4500         6
  93.5000         5
  93.5500         9
  93.6000        15
  93.6500         6
  93.7000        13
  93.7500        12
  93.8000         6
  93.8500        12
  93.9000        20
  93.9500        11
  94.0000        12
  94.0500        12
  94.1000        10
  94.1500         9
  94.2000        11
  94.2500        11
  94.3000        10
  94.3500        11
  94.4000        17
  94.4500        13
  94.5000         8
  94.5500        12
  94.6000         9
  94.6500         5
  94.7000        19
  94.7500         8
  94.8000        12
  94.8500         8
  94.9000        17
  94.9500        12
  95.0000        15
  95.0500        14
  95.1000        18
  95.1500        29
  95.2000        28
  95.2500        24
  95.3000        15
  95.3500        14
  95.4000        18
  95.4500        16
  95.5000        27
  95.5500        28
  95.6000        27
  95.6500        30
  95.7000        16
  95.7500        25
  95.8000        18
  95.8500        24
  95.9000        21
  95.9500        16
  96.0000        14
  96.0500        14
  96.1000        15
  96.1500        15
  96.2000        10
  96.2500        15
  96.3000        12
  96.3500        11
  96.4000        13
  96.4500        11
  96.5000         8
  96.5500        15
  96.6000        16
  96.6500        18
  96.7000        21
  96.7500        17
  96.8000        16
  96.8500        17
  96.9000        21
  96.9500        12
  97.0000        14
  97.0500        13
  97.1000        11
  97.1500        15
  97.2000        20
  97.2500        16
  97.3000        23
  97.3500        37
  97.4000        51
  97.4500        41
  97.5000        44
  97.5500        23
  97.6000        20
  97.6500        28
  97.7000        18
  97.7500        32
  97.8000        32
  97.8500        29
  97.9000        16
  97.9500        16
  98.0000        12
  98.0500        15
  98.1000        19
  98.1500         9
  98.2000        17
  98.2500        14
  98.3000         8
  98.3500        12
  98.4000        10
  98.4500        10
  98.5000        10
  98.5500        13
  98.6000        12
  98.6500         6
  98.7000        13
  98.7500         9
  98.8000        14
  98.8500        13
  98.9000        12
  98.9500        11
  99.0000        13
  99.0500        14
  99.1000        16
  99.1500         8
  99.2000        14
  99.2500        11
  99.3000        10
  99.3500        14
  99.4000         4
  99.4500         6
  99.5000        12
  99.5500        15
  99.6000         8
  99.6500        10
  99.7000         8
  99.7500        12
  99.8000        17
  99.8500        15
  99.9000         9
  99.9500         6
 100.0000        11
 100.0500         5
 100.1000        13
 100.1500        12
 100.2000        17
 100.2500        13
 100.3000         8
 100.3500        11
 100.4000        10
 100.4500         6
 100.5000        13
 100.5500        13
 100.6000        10
 100.6500        13
 100.7000        14
 100.7500        11
 100.8000        12
 100.8500         7
 100.9000        11
 100.9500         7
 101.0000        13
 101.0500        10
 101.1000        12
 101.1500        17
 101.2000        14
 101.2500        17
 101.3000        16
 101.3500        10
 101.4000        12
 101.4500         8
 101.5000         8
 101.5500        13
 101.6000        12
 101.6500        12
 101.7000        10
 101.7500        16
 101.8000         8
 101.8500        13
 101.9000        14
 101.9500         6
 102.0000        12
 102.0500         6
 102.1000         6
 102.1500        11
 102.2000        11
 102.2500         7
 102.3000        18
 102.3500        11
 102.4000        10
 102.4500        11
 102.5000        10
 102.5500        11
 102.6000         8
 102.6500         9
 102.7000        12
 102.7500        17
 102.8000         9
 102.8500         9
 102.9000         7
 102.9500        14
 103.0000        15
 103.0500        11
 103.1000        14
 103.1500        25
 103.2000        21
 103.2500        30
 103.3000        35
 103.3500        31
 103.4000        18
 103.4500        22
 103.5000        22
 103.5500        14
 103.6000        27
 103.6500        23
 103.7000        22
 103.7500        19
 103.8000        11
 103.8500        12
 103.9000        10
 103.9500         8
 104.0000        13
 104.0500        10
 104.1000        13
 104.1500        22
 104.2000         6
 104.2500        19
 104.3000        16
 104.3500        13
 104.4000        14
 104.4500        10
 104.5000         6
 104.5500        13
 104.6000        18
 104.6500        14
 104.7000        14
 104.7500        17
 104.8000        17
 104.8500        20
 104.9000        16
 104.9500        14
 105.0000        13
 105.0500        18
 105.1000        24
 105.1500        17
 105.2000        14
 105.2500        17
 105.3000        13
 105.3500        14
 105.4000        13
 105.4500        16
 105.5000        11
 105.5500        11
 105.6000        14
 105.6500        15
 105.7000        16
 105.7500        10
 105.8000        11
 105.8500        12
 105.9000        10
 105.9500         6
 106.0000         7
 106.0500        13
 106.1000         4
 106.1500         9
 106.2000        12
 106.2500         9
 106.3000        12
 106.3500        11
 106.4000        12
 106.4500        18
 106.5000        15
 106.5500        14
 106.6000        13
 106.6500        13
 106.7000        11
 106.7500         8
 106.8000        18
 106.8500        11
 106.9000        18
 106.9500        12
 107.0000         6
 107.0500        10
 107.1000         6
 107.1500        12
 107.2000        10
 107.2500        10
 107.3000        10
 107.3500         9
 107.4000        10
 107.4500        10
 107.5000        17
 107.5500        13
 107.6000        14
 107.6500        16
 107.7000         9
 107.7500         9
 107.8000        17
 107.8500         4
 107.9000         7
 107.9500        10
 108.0000        11
 108.0500        14
 108.1000        13
 108.1500        10
 108.2000         8
 108.2500        14
 108.3000        13
 108.3500        13
 108.4000        10
 108.4500         9
 108.5000        16
 108.5500         8
 108.6000         9
 108.6500         9
 108.7000        13
 108.7500        14
 108.8000        12
 108.8500         8
 108.9000        13
 108.9500        12
 109.0000        12
 109.0500        15
 109.1000        15
 109.1500        14
 109.2000        11
 109.2500        13
 109.3000        16
 109.3500        16
 109.4000        13
 109.4500        15
 109.5000        13
 109.5500        15
 109.6000        11
 109.6500        15
 109.7000        11
 109.7500         5
 109.8000         8
 109.8500        13
 109.9000        18
 109.9500        11
 110.0000         7
